timestamp,emg1,emg2,emg3,emg4,emg5,emg6,emg7,emg8
7335575984,-4,-4,0,-4,0,3,0,-1
7335575984,-13,-29,0,-2,-2,-4,-3,-7
7335576837,8,4,1,-3,-5,-4,-4,1
7335576837,-3,19,-2,-2,-4,-9,12,-6
7335580330,6,1,0,0,0,0,-26,4
7335580330,8,3,0,0,1,-5,9,3
7335581972,-19,14,-1,0,0,13,-3,0
7335581972,-2,-8,0,-2,-1,-2,3,-2
7335587465,5,-8,-2,1,-1,-4,4,-8
7335587465,11,37,2,1,-1,-27,-14,-2
7335595515,-3,-3,-3,-3,1,26,-32,-3
7335595515,-2,-25,-2,-1,0,-3,0,0
7335611162,-20,9,0,0,-5,-7,1,-5
7335611162,-1,2,-1,0,3,15,17,2
7335616735,12,-16,1,-1,-3,-23,16,-5
7335616735,9,1,-1,1,4,11,-25,5
7335625409,3,11,-1,-4,-4,-5,6,2
7335625409,-8,-15,-1,-2,-3,1,-1,-3
7335640441,-2,-17,-4,-1,-1,-7,-12,0
7335640441,7,6,-7,-1,0,-2,5,-4
7335647290,-8,9,7,0,-1,-3,8,0
7335647290,5,-31,7,-5,-2,5,-4,-1
7335694893,-4,10,-14,11,2,0,-4,1
7335694893,-19,-52,0,13,13,2,2,-2
7335695883,-1,92,6,-8,-3,4,2,-1
7335695883,-14,-101,16,8,-16,-7,-6,-5
7335696564,15,18,10,-8,17,3,4,4
7335696564,-1,43,-31,-1,6,-2,-4,-3
7335699055,5,-47,-10,5,-7,-1,-1,1
7335699055,3,-32,12,9,10,1,0,1
7335707283,6,36,29,21,-7,5,8,8
7335707283,-34,4,-13,-11,-15,-9,-13,-16
7335714069,-13,17,-6,-3,7,-3,-1,1
7335714069,26,2,-6,6,6,7,8,4
7335721584,-17,15,-7,-11,-3,-3,-2,-4
7335721584,11,1,2,-10,-3,0,3,-4
7335736564,-5,-11,7,16,-9,-6,-6,-4
7335736564,0,24,-6,-33,-17,-11,-11,-3
7335744095,-4,13,-9,-1,10,-2,-7,0
7335744095,8,37,3,4,5,9,19,7
7335752895,16,37,6,-8,-6,-5,-15,-1
7335752895,-6,30,-10,-7,-13,-4,0,-5
7335767153,-11,-9,-11,-12,8,-22,-14,-7
7335767153,-4,-5,7,10,-31,-8,6,2
7335774101,-6,-39,3,21,21,30,12,0
7335774101,12,8,0,-19,0,3,-1,5
7335781483,-11,-36,-11,-10,9,0,24,5
7335781483,13,-29,12,14,10,11,-6,4
7335796507,-4,-31,-14,-38,-24,-17,-5,-1
7335796507,-9,11,3,35,5,-2,-3,-6
7335804062,9,-17,-9,-11,-38,-20,-15,-5
7335804062,-6,-41,10,-3,14,9,0,-5
7335812926,-1,-13,-8,-6,6,3,7,3
7335812926,-5,-2,-4,-15,-10,-5,-8,-4
7335827247,3,-10,21,19,0,-9,0,0
7335827247,7,-7,-12,-6,-7,8,-2,2
7335834114,-5,-12,3,-8,3,3,-2,-4
7335834114,1,15,-2,31,30,1,9,1
7335841529,-3,-19,0,6,3,9,-3,-4
7335841529,-1,4,-10,-16,-11,-11,-11,-5
7335856500,5,3,-13,-4,-6,-9,-2,1
7335856500,-13,3,1,-40,-18,-11,-7,-4
7335864057,6,4,4,12,15,20,9,1
7335864057,8,19,5,11,9,-2,-4,2
7335872915,-2,-12,-1,10,9,3,5,-1
7335872915,3,6,-11,-8,-9,-6,1,-1
7335887287,11,12,10,1,-5,10,12,1
7335887287,1,9,23,10,7,-3,11,9
7335893928,-2,-3,-1,-2,4,1,-2,-3
7335893928,-6,2,-8,11,2,-3,10,-1
7335901556,-11,-21,-11,-28,-9,-14,-20,-8
7335901556,11,14,5,6,4,11,-1,5
7335916543,-3,-5,0,-2,-9,-14,-3,-3
7335916543,-10,2,5,6,12,12,-2,-2
7335924054,4,-2,-6,0,-6,-4,-1,-1
7335924054,-18,-11,-9,-18,-11,-20,-3,-2
7335932921,2,4,1,1,-9,8,-10,-6
7335932921,10,9,2,-4,3,-13,-3,6
7335947248,-13,-18,-5,-2,-2,26,6,0
7335947248,-1,-8,0,-5,-1,-9,0,-6
7335954060,-9,-16,-2,-7,-3,2,-22,-7
7335954060,8,4,-4,7,5,12,-21,9
7335961573,0,3,-2,-1,-6,-10,19,-8
7335961573,3,-2,-4,-8,-2,-10,-2,0
7335976550,5,-3,2,4,2,13,5,4
7335976550,-12,-10,-5,-5,-8,-18,-53,-12
7335984052,5,-4,1,3,2,14,27,10
7335984052,-5,-12,-5,-11,-4,-9,-4,-4
7335999079,12,7,1,2,2,-9,10,6
7335999079,0,7,0,0,-1,-4,14,-3
7336007287,-10,17,2,-6,-3,-5,-18,-4
7336007287,-6,-27,-11,1,1,4,-6,-2
7336014133,7,2,-1,2,-1,-7,4,-3
7336014133,-3,-9,-4,-5,-4,11,8,-1
7336021601,-5,-3,1,-1,1,-5,-14,0
7336021601,-4,-4,7,7,-3,2,1,-5
7336036471,1,-13,-10,-24,-5,-6,-4,-1
7336036471,-16,-10,2,28,3,1,8,-4
7336043989,-5,2,-4,-9,-6,-4,-8,-7
7336043989,8,10,6,3,-6,-7,-6,6
7336059054,-6,-15,-5,24,16,5,3,0
7336059054,19,-1,-8,-18,1,10,18,11
7336067271,3,5,-18,-20,-1,-5,-8,-4
7336067271,-1,7,19,16,-11,1,-6,-2
7336074081,-3,38,-3,6,0,-13,-6,-3
7336074081,-7,-13,8,-45,-16,1,4,-5
7336081561,8,3,-15,22,14,-1,-2,5
7336081561,-9,11,-10,-25,-8,-1,-4,-2
7336096582,-11,-11,1,7,-7,-7,-1,1
7336096582,2,38,8,4,-1,0,2,-6
7336103967,3,27,17,0,-5,4,-3,1
7336103967,6,-59,-13,-5,4,1,-1,0
7336119066,5,-9,11,-3,-2,0,2,3
7336119066,6,-12,-8,7,-1,-5,-2,-4
7336127145,2,-1,4,-7,-5,0,-3,-2
7336127145,3,36,4,13,9,5,0,-2
7336134069,-19,-2,-8,-23,-7,-4,3,0
7336134069,-3,-2,3,8,0,0,1,2
7336141478,6,-4,-4,-10,-9,-3,-5,-3
7336141478,12,25,-6,-10,14,3,3,1
7336156518,-33,23,6,-8,-7,-1,-1,1
7336156518,6,20,-1,17,15,8,8,0
7336164084,-10,-18,-4,-7,-3,-5,6,-2
7336164084,9,-16,-2,7,-7,2,-12,-5
7336179047,13,35,9,-2,-8,3,3,-3
7336179047,2,-32,-11,4,12,-1,-5,1
7336187257,-5,-18,9,8,-9,-13,-3,0
7336187257,10,23,1,-1,-2,10,9,2
7336194061,12,-24,-4,-13,-3,-15,-5,2
7336194061,-10,12,-14,-10,-3,10,0,-6
7336209769,3,-16,3,-3,-3,-5,-3,1
7336209769,-3,-10,-9,9,-6,-17,-6,-1
7336216448,0,-6,0,-5,5,2,3,-2
7336216448,-4,-10,12,36,1,8,5,1
7336223965,1,-4,-19,-23,10,5,-5,-3
7336223965,-4,1,5,-23,-9,-8,-1,1
7336239020,-7,-17,3,5,-4,-6,-5,-8
7336239020,6,-2,7,11,11,-25,0,1
7336247164,-28,-5,17,22,3,16,-9,-6
7336247164,1,-6,-3,3,-4,-3,2,-3
7336253928,18,6,-2,17,8,-4,0,4
7336253928,-3,5,-3,-2,2,15,3,-1
7336261561,-3,-3,0,-18,-7,-9,0,-4
7336261561,-3,6,-4,11,15,15,12,6
7336276529,-4,0,-8,5,10,-10,-16,-10
7336276529,-13,-24,-3,-38,-29,-9,-7,-8
7336284734,3,-7,-7,7,-7,1,-17,1
7336284734,-5,-3,16,5,2,11,25,2
7336307910,-4,-10,-4,21,14,-4,0,-3
7336307910,3,14,5,-18,-3,5,5,9
7336308627,0,-14,-16,-16,14,0,-11,-1
7336308627,-7,-15,-9,-23,-23,-13,-15,-3
7336313955,2,9,7,6,-7,9,14,0
7336313955,-5,3,10,-6,0,-8,-8,-6
7336329756,4,23,6,23,-4,-10,4,-5
7336329756,-5,7,-3,-1,4,16,-13,7
7336336508,9,-5,-3,-1,3,2,10,2
7336336508,1,9,-17,-1,0,-17,2,2
7336344669,1,-2,-6,-6,-5,16,4,-2
7336344669,-11,-22,-1,0,3,-16,-10,-11
7336359039,0,-13,2,-4,-1,4,-13,-2
7336359039,20,7,2,-3,2,-6,14,10
7336367228,-16,-18,-4,11,7,4,-1,4
7336367228,-7,-14,-2,-1,3,13,13,-2
7336374074,1,-6,-2,-8,-6,6,5,1
7336374074,-10,3,0,5,-5,-9,-7,-4
7336389603,11,13,4,3,4,-11,-6,4
7336389603,7,17,-3,-2,-2,0,4,-1
7336396402,-5,-5,0,-5,-3,-5,-16,-2
7336396402,2,-28,-6,-1,0,10,11,-1
7336404719,3,-23,-8,-5,-4,-5,0,-2
7336404719,-16,-11,-5,-7,0,-8,-2,-3
7336419089,-1,-5,-2,-1,-6,-9,13,-5
7336419089,-1,0,4,2,1,10,-4,7
7336427893,1,5,-7,-7,-6,-10,-4,-3
7336427893,11,11,-2,0,0,24,4,-1
7336434013,2,-6,-3,-2,-6,-2,-10,-2
7336434013,0,4,1,4,-1,0,0,2
7336450441,-6,8,4,4,-2,1,3,4
7336450441,11,11,-1,-2,-3,-23,1,0
7336456498,-29,0,6,-8,-1,14,-6,-6
7336456498,-4,-13,-3,11,4,8,6,-4
7336472895,12,22,12,24,3,2,-6,4
7336472895,-18,-16,-13,-26,-10,-16,-10,-12
7336479062,75,72,-4,-14,-3,7,13,18
7336479062,-51,-36,10,-5,-16,-13,-29,-13
7336487915,-8,-56,45,42,16,3,31,1
7336487915,-19,80,-31,-36,-24,-2,-16,1
7336494041,32,-4,34,-42,15,-4,-5,-5
7336494041,-27,67,-79,-6,11,1,-14,-8
7336510375,24,-5,20,13,5,15,13,21
7336510375,-21,-53,-26,5,-4,-6,-5,-15
7336516522,-1,68,39,-1,-14,-13,1,12
7336516522,44,46,109,91,-33,-6,6,12
7336532941,-69,-14,-117,-106,36,7,-10,-25
7336532941,19,-7,-62,3,-10,-4,6,6
7336539059,-22,-90,-59,10,1,2,11,-1
7336539059,30,59,19,2,-4,5,9,8
7336547903,1,26,24,17,-12,-12,-31,-10
7336547903,12,-31,50,10,-9,-12,-11,1
7336554019,-15,13,-11,10,8,5,2,1
7336554019,-5,-36,-27,-12,4,-5,-1,-6
7336570377,-3,-11,20,5,-23,3,-6,-3
7336570377,10,36,13,6,38,11,1,1
7336576441,-19,-9,3,23,-2,7,-29,4
7336576441,2,21,-2,-22,6,12,10,-7
7336592937,-14,33,-7,-16,-30,-20,-7,-7
7336592937,5,-18,23,0,-13,1,3,0
7336599043,-11,-49,-11,-6,-6,8,-9,-5
7336599043,-4,-62,-8,-29,2,11,1,-7
7336607899,22,-8,1,11,31,-7,2,2
7336607899,-18,-19,8,12,3,6,-6,0
7336614012,-5,-11,13,-7,-6,-10,11,-9
7336614012,-3,-19,-17,-6,-7,-21,-17,-2
7336630379,8,-15,-12,-39,-4,-11,14,1
7336630379,1,-2,24,21,-10,3,-2,-3
7336636548,-12,-1,-6,1,20,-8,-8,-7
7336636548,6,-14,-7,3,-1,22,16,3
7336652940,6,1,16,11,11,-7,0,4
7336652940,-2,-2,-2,-5,8,3,-3,1
7336659087,2,19,10,4,-12,-7,7,-1
7336659087,-8,-6,-16,-29,-2,-8,-6,-6
7336667921,9,14,15,21,-4,6,4,3
7336667921,0,22,1,-13,0,-5,-1,-2
7336681472,-4,5,-11,8,-4,4,4,2
7336681472,-6,3,7,-15,-2,-10,-7,-2
7336690442,8,17,-13,-11,-11,9,4,3
7336690442,0,6,1,-11,-5,-4,5,-2
7336703968,-6,-2,-1,14,1,-1,-6,-8
7336703968,0,-8,-4,-1,9,-5,10,4
7336712910,0,-4,3,14,-11,0,1,-8
7336712910,3,-10,-4,8,20,0,6,7
7336719056,-9,-11,-6,-2,1,-1,2,-2
7336719056,6,-12,-11,-16,0,3,-16,-2
7336727947,-1,-9,-1,-4,-21,-12,-7,-2
7336727947,4,-5,4,6,3,6,14,4
7336741477,-4,0,-2,-2,-2,3,-7,-2
7336741477,-11,-10,-2,3,-1,-11,-1,0
7336756464,11,1,-2,-1,-3,3,-4,3
7336756464,-3,3,7,4,-1,-2,-2,-3
7336764691,3,6,-4,-7,-8,-7,-25,3
7336764691,-5,-8,-4,0,3,8,13,-2
7336771532,-1,-2,0,2,-1,-2,-1,-6
7336771532,-1,3,5,3,4,3,-4,0
7336779110,13,-3,-6,-8,-4,-4,4,3
7336779110,-8,4,1,-4,-3,-13,-14,-2
7336787893,-4,1,-3,2,5,14,12,0
7336787893,-3,-6,0,1,-1,-8,-1,-2
7336801558,2,3,-2,-3,-3,1,11,2
7336801558,0,-3,6,9,0,3,-14,-2
7336810355,-1,0,-8,-9,1,1,3,2
7336810355,-3,0,0,2,3,-3,-3,-2
7336824734,-7,-10,6,3,2,4,2,-5
7336824734,8,-1,-3,3,6,5,8,3
7336831428,-5,2,3,-1,-3,-5,-10,-3
7336831428,5,2,3,-14,-11,-5,-3,0
7336839055,-11,-3,-2,18,2,-6,1,-1
7336839055,0,3,-1,-3,-6,-4,-1,-5
7336847899,0,-3,-5,-1,-2,-1,-2,3
7336847899,-4,-4,-4,-5,3,-8,-2,-2
7336861454,-1,0,1,-3,-2,8,4,-2
7336861454,7,3,15,10,3,0,-2,1
7336870379,-14,-5,-13,-14,-1,2,2,-2
7336870379,9,4,3,7,3,-2,-4,-1
7336885286,-5,-2,-8,-5,-2,-4,0,0
7336885286,-2,6,-6,-3,-6,-4,-1,-1
7336886883,16,3,8,4,-6,-7,-3,2
7336886883,-9,7,-3,-12,-9,-2,-5,-3
7336899038,-2,4,-9,-4,7,2,2,-3
7336899038,-3,-28,4,4,6,5,5,3
7336907891,-10,-27,-15,-4,1,0,-1,-5
7336907891,4,27,3,-5,-2,-2,-4,-1
7336921490,12,13,16,1,5,2,6,4
7336921490,-4,25,-3,7,3,-1,-2,1
7336930416,9,-27,10,15,-1,-2,-2,2
7336930416,-31,-41,-21,-16,-7,-4,-5,-6
7336945366,2,7,-5,-14,-6,-1,2,-3
7336945366,5,61,17,15,7,8,8,-2
7336946991,20,6,4,-13,-2,0,1,7
7336946991,12,24,10,25,6,0,-2,-3
7336959076,16,-29,-12,-20,-14,-6,-3,3
7336959076,-44,-32,-14,14,1,-1,-4,-4
7336967915,-1,24,7,2,-10,-5,-4,-5
7336967915,1,-1,-4,-7,-1,-2,0,-3
7336981590,8,-45,-4,0,2,3,0,0
7336981590,15,38,6,1,6,3,2,4
7336990381,-46,-31,-13,-13,-4,0,-6,-9
7336990381,20,-4,3,11,-6,-8,-5,3
7337005359,6,27,7,-2,-4,5,1,0
7337005359,12,-12,-14,-25,-8,-9,-6,6
7337006941,-9,20,7,21,13,1,-3,-4
7337006941,0,43,10,-8,0,7,11,9
7337019055,-34,28,-7,-1,-6,-1,-5,-11
7337019055,12,11,0,-7,-20,-25,-14,-7
7337027907,-15,-6,-13,-32,-13,-1,-5,-5
7337027907,3,-11,5,19,22,4,2,1
7337041493,2,3,15,15,21,18,6,3
7337041493,-7,-28,-6,-5,10,15,10,-1
7337050368,0,13,-3,-4,-15,-22,-10,-2
7337050368,-13,-34,1,-1,-14,-18,-4,-7
7337065368,7,10,12,-2,-11,2,-1,3
7337065368,-5,-33,1,-30,-20,2,7,-5
7337066960,22,6,5,-9,40,17,-5,6
7337066960,-26,-16,-19,21,10,2,36,4
7337087836,-15,-33,-20,-50,-31,-6,-3,-11
7337087836,-7,-27,6,20,12,17,-2,-1
7337089342,9,7,9,-6,-47,-13,10,3
7337089342,-14,-36,-20,-24,-19,11,-9,-6
7337102916,-5,7,-26,-6,47,17,14,-2
7337102916,13,9,15,31,7,0,11,4
7337110648,-3,4,-5,17,8,-21,-13,-2
7337110648,21,12,6,35,-8,49,-4,6
7337125941,0,-19,-9,-20,-20,-28,-7,-2
7337125941,-10,-14,-15,-31,9,-4,1,-2
7337128289,15,12,22,33,15,5,3,6
7337128289,5,9,5,-27,-5,-20,-12,0
7337139024,-2,9,-6,14,-6,-2,4,2
7337139024,-5,13,3,-10,-10,-11,-36,-9
7337147986,6,8,8,22,9,8,23,7
7337147986,5,20,5,-29,0,-7,-6,-2
7337161456,-7,-13,17,17,-5,6,0,-2
7337161456,1,-22,-26,-5,4,-10,-4,-2
7337170459,-10,-28,-9,-16,-12,1,-5,-6
7337170459,3,-17,5,3,12,-1,-13,-3
7337185190,5,7,13,10,4,-3,18,3
7337185190,-24,0,-2,-6,-11,-20,-17,-3
7337186856,-10,2,2,8,10,36,9,-7
7337186856,-4,6,2,-4,-7,-13,-18,-2
7337198941,-11,-9,-4,3,-2,-15,-14,-4
7337198941,13,-15,-10,-10,-15,-7,1,-3
7337207951,12,8,1,1,2,-9,3,-2
7337207951,-13,-2,3,7,5,-5,-14,-6
7337221502,6,1,-11,-17,-5,-3,-5,1
7337221502,7,2,15,3,-4,4,-1,3
7337230424,-11,1,-7,18,18,7,7,1
7337230424,8,2,-6,-2,1,5,13,-2
7337245336,-3,-19,-18,8,-6,-7,-11,0
7337245336,-3,5,6,-2,1,5,8,-4
7337246989,7,5,24,-4,-16,-11,-12,-2
7337246989,-1,-13,-16,-9,-10,-13,-1,1
7337259017,-10,11,1,-1,6,9,2,-3
7337259017,5,9,-1,14,7,4,1,1
7337267987,4,-10,-10,4,2,-1,-1,1
7337267987,-6,10,13,4,-4,0,2,-5
7337281506,23,18,7,-5,-14,-16,-16,0
7337281506,-7,12,-4,0,7,11,15,0
7337290393,-6,1,3,9,0,-5,-5,0
7337290393,-12,6,-16,-22,-8,-7,-1,-2
7337304730,-2,16,2,4,-4,-4,-5,-2
7337304730,12,-2,-2,-10,2,2,0,0
7337311449,-16,10,-16,4,1,2,-1,-5
7337311449,-6,-3,-9,-14,-6,-5,2,4
7337318964,-2,-9,8,19,9,-5,-7,-2
7337318964,7,4,5,-12,-7,3,3,0
7337327923,-15,19,-7,-27,-18,-8,-7,-9
7337327923,27,-11,10,17,12,-1,6,3
7337341384,-5,8,-5,-5,2,-11,2,3
7337341384,4,-39,-12,1,-6,2,-13,-4
7337350464,17,19,13,9,1,16,-1,2
7337350464,-4,-10,-17,-16,10,4,0,-1
7337364713,-7,18,29,29,-5,2,0,-3
7337364713,-13,-48,-23,-25,-13,-12,0,-1
7337371448,8,6,-2,5,19,-7,-4,1
7337371448,-7,-14,6,0,-14,7,3,-2
7337378957,7,-22,0,22,26,2,0,-4
7337378957,-27,9,4,2,-23,-12,-6,-4
7337388033,-10,-10,-19,-25,-2,-6,-5,-5
7337388033,0,-9,5,12,-15,-7,2,4
7337401468,-1,-7,-9,-21,-14,-5,-5,-7
7337401468,10,32,16,38,24,16,10,4
7337410420,10,-15,-1,-21,13,3,-5,0
7337410420,-4,0,-6,2,3,8,4,-1
7337424671,-2,5,-11,-14,-12,-3,6,5
7337424671,0,9,-3,-15,-35,-12,-11,-3
7337431442,14,-12,-1,-10,19,-9,1,1
7337431442,0,-5,4,33,26,0,-2,-1
7337438983,-9,3,0,-19,-18,3,-3,-6
7337438983,3,0,12,19,14,13,5,4
7337447945,-7,-23,-6,-6,-26,-10,1,-2
7337447945,12,24,1,9,8,4,0,3
7337461498,-5,-10,17,38,-3,4,-2,-1
7337461498,9,9,17,-45,20,-6,2,0
7337470415,-9,-16,-24,-7,-47,17,-5,-3
7337470415,-10,2,10,-7,17,14,7,-4
7337484664,0,-2,-20,-30,5,-11,-2,7
7337484664,-6,-9,11,27,-19,-2,-4,-6
7337491471,-4,4,2,21,-15,-14,-4,-2
7337491471,6,-6,-15,-12,7,5,6,2
7337509141,-5,-4,23,33,4,0,-3,-3
7337509141,-8,3,4,-34,-11,-5,-5,-5
7337510824,7,9,-11,26,0,4,3,5
7337510824,-7,-8,13,-7,-4,0,1,-5
7337521500,-9,-6,-20,-40,5,-9,-6,-7
7337521500,3,4,-13,-8,5,2,1,4
7337530365,5,8,13,25,7,7,1,4
7337530365,2,-5,1,18,3,-7,-5,-2
7337544633,2,7,6,4,-12,10,3,5
7337544633,-4,6,-17,-10,9,-8,9,-2
7337551456,-1,4,7,-14,21,-12,-3,0
7337551456,4,17,-1,5,-8,9,-11,-7
7337567835,3,9,-3,-13,2,0,13,6
7337567835,-6,-8,-12,16,4,-8,12,-3
7337569437,6,-17,7,-2,14,14,-2,5
7337569437,4,-13,-5,-7,-10,-2,-7,-1
7337581450,-5,3,-11,-10,-13,-20,17,-6
7337581450,14,9,8,18,15,49,-3,9
7337590340,-20,-20,-7,-12,-10,-38,0,-7
7337590340,-13,-4,-10,-17,-10,11,-12,-5
7337604650,5,-9,0,5,-1,2,1,1
7337604650,-3,2,-5,7,3,-2,2,-2
7337611457,2,16,-1,-6,1,-11,-3,1
7337611457,6,10,3,0,-5,-11,-3,-3
7337627763,-18,-27,-6,6,6,-1,-8,-6
7337627763,-2,5,12,11,4,-4,-1,4
7337629397,-10,-22,-10,-38,-16,5,-7,-2
7337629397,17,-8,12,26,0,-12,4,-1
7337641441,-4,-7,-16,9,18,22,-1,0
7337641441,-19,-13,-13,-10,-11,-17,-12,-8
7337650415,19,16,11,11,-7,4,7,1
7337650415,-8,1,-6,-25,2,-2,0,3
7337664590,28,17,8,9,2,-8,-7,4
7337664590,-11,7,-14,-12,-6,0,-5,-4
7337671513,-6,-20,0,13,5,5,4,-4
7337671513,2,18,-6,-23,-14,-10,-4,-2
7337687757,-2,-3,15,15,-6,-5,-11,-3
7337687757,26,-7,-55,-17,24,13,15,7
7337689346,-47,7,1,16,11,15,2,-5
7337689346,-1,-3,-23,-9,-10,-14,-7,-5
7337701441,1,24,10,-3,-4,5,5,5
7337701441,11,-73,13,7,-13,-15,-13,-6
7337710345,9,35,12,7,-1,-1,-1,2
7337710345,-5,46,-11,-11,3,-5,3,3
7337724614,-9,-10,15,-1,-9,-6,-14,-7
7337724614,14,32,-9,-8,-1,4,-3,-3
7337731453,21,58,15,13,-5,-8,-1,6
7337731453,-26,-64,-45,7,13,-4,-4,-7
7337747809,-7,37,22,12,6,12,4,0
7337747809,-12,-3,29,20,-12,-14,-6,0
7337749413,-5,-90,-45,-35,5,2,-3,-3
7337749413,-17,-11,19,-10,-10,-5,2,-1
7337761509,25,40,-21,9,9,9,2,7
7337761509,-15,60,6,12,-5,-4,-2,-4
7337770422,-1,55,6,-10,-3,-5,-4,-1
7337770422,-3,1,7,12,-8,2,1,-4
7337784652,7,-54,-26,-28,-12,-11,-5,3
7337784652,0,31,27,20,8,-8,-6,-3
7337791430,16,-59,-3,3,5,15,42,14
7337791430,-14,-19,2,1,-10,4,-25,-3
7337807809,-2,7,-1,-8,5,-9,-14,-15
7337807809,-13,-16,-6,10,5,16,7,1
7337809321,-4,-31,9,27,-4,-28,-5,-8
7337809321,4,-9,-14,-29,-18,29,-9,4
7337821537,7,-14,-9,-10,11,-27,-3,3
7337821537,-3,-10,3,8,2,-3,6,-2
7337830390,-6,-17,-7,-10,-11,13,-25,1
7337830390,9,30,9,-2,7,-8,26,5
7337844660,-1,-2,-10,-19,-15,-15,-17,-8
7337844660,0,-9,-9,-20,-20,24,8,-2
7337851382,-10,20,15,39,29,-7,-8,-4
7337851382,24,22,-2,1,59,4,4,4
7337875316,-11,-11,1,-2,-8,3,1,-2
7337875316,-3,-29,-19,-9,6,2,1,0
7337876958,4,15,2,25,-18,-3,-4,-2
7337876958,11,15,3,-32,-10,-13,0,6
7337881397,-13,-23,-24,-12,-2,11,7,-7
7337881397,2,5,8,8,10,-13,-10,0
7337890345,6,11,-23,-72,0,-11,-8,-1
7337890345,-4,-11,0,46,-14,17,8,-4
7337904677,-11,-5,20,-3,13,-9,-1,-2
7337904677,13,10,-11,28,22,17,9,10
7337911443,-3,2,-6,-19,-9,-11,-5,-3
7337911443,2,-10,31,58,-5,-23,-8,-2
7337927707,-13,-6,-10,-39,-20,16,2,-5
7337927707,8,10,8,6,-26,-13,-3,1
7337929309,3,1,10,7,7,2,7,1
7337929309,-4,7,-1,9,1,15,-6,-1
7337941504,-2,3,1,16,-4,-15,-5,-2
7337941504,-12,-7,2,-24,9,6,-3,-6
7337950390,-1,12,-22,-9,-22,-16,-7,-3
7337950390,-3,12,10,-7,-11,10,12,-3
7337964696,-2,5,-1,4,12,6,8,5
7337964696,4,12,6,-4,-4,-6,-1,-3
7337971490,-15,-22,-4,-6,-5,-3,4,-5
7337971490,4,-12,9,-5,4,14,-6,-1
7337987832,7,-4,3,12,10,7,10,11
7337987832,-5,-21,-3,-3,-7,-34,11,4
7337989483,-6,-13,-3,-4,-8,15,-16,-7
7337989483,-1,-4,-4,-10,7,-36,29,5
7338001433,10,3,1,9,-6,69,7,-5
7338001433,16,12,2,-5,-3,-31,-28,7
7338010364,-30,-19,5,2,15,19,28,-2
7338010364,13,-23,-7,-7,-4,-10,-23,-1
7338024642,-33,-17,-3,1,-8,-19,14,-2
7338024642,-1,-14,-1,-6,-1,0,2,-2
7338031342,27,3,0,-2,5,7,-1,7
7338031342,1,6,-1,-3,-8,-2,-4,-3
7338047686,-16,-6,1,6,-1,-2,-5,-4
7338047686,-13,-10,-2,-7,0,8,-8,-10
7338049295,1,-2,6,3,-3,-4,-1,-1
7338049295,-5,-10,2,2,-6,-7,-3,-2
7338061486,18,20,-9,-3,4,5,-6,5
7338061486,-2,16,-8,-2,-4,3,3,-7
7338070390,20,21,5,-27,-10,1,-5,8
7338070390,-24,14,-8,34,4,-3,-5,0
7338083968,-6,-11,8,3,6,-8,-6,-1
7338083968,-7,34,16,15,-3,2,4,-2
7338092946,-10,12,-29,-23,-19,-17,-8,-8
7338092946,2,77,-3,-11,5,16,0,-5
7338107835,10,-78,1,6,3,2,7,-1
7338107835,23,0,23,3,15,13,7,12
7338109460,-9,76,-23,-11,0,-8,-7,-7
7338109460,-31,20,-18,-20,-27,-14,-5,-10
7338121829,27,47,16,16,1,-6,0,16
7338121829,-15,-64,-32,7,-15,-11,-3,-17
7338130363,-2,29,46,-3,-5,-3,-27,-7
7338130363,-26,9,-59,-18,16,-3,-2,-5
7338144669,13,-9,6,5,-8,6,1,-5
7338144669,19,-26,55,7,5,7,5,9
7338151347,3,44,-42,-23,-10,0,9,5
7338151347,15,-28,25,19,1,-4,6,4
7338167763,4,15,-3,-1,-16,-16,-16,-4
7338167763,-9,-28,-14,0,9,-2,-4,-1
7338169315,1,-45,21,24,9,14,6,-4
7338169315,9,17,34,12,4,-1,3,8
7338181502,-3,41,-30,-23,-1,-2,-2,1
7338181502,-9,63,5,25,0,14,-5,-1
7338190389,7,14,7,-2,16,-12,2,-1
7338190389,4,-45,-9,-37,-7,-3,2,0
7338204681,-13,-12,7,16,15,22,6,-2
7338204681,-1,6,-21,-39,-4,-12,-6,-1
7338211512,-14,-83,-5,15,-37,-19,-10,-6
7338211512,7,-34,7,-7,-15,16,1,-7
7338227188,5,1,21,30,26,-5,-2,3
7338227188,-2,-8,-3,5,32,19,37,8
7338233908,-3,-29,-5,-8,18,11,11,3
7338233908,14,-14,4,-7,-10,0,-14,-1
7338241462,-17,-6,-10,-23,-34,-21,-11,-10
7338241462,-2,-18,-28,-24,-10,11,-4,-4
7338250351,-11,-14,10,-3,-2,-5,-3,-4
7338250351,-6,-3,4,2,-1,-16,4,1
7338264616,-7,-10,-7,6,7,7,0,-5
7338264616,8,14,3,-2,-20,-18,-14,1
7338271461,2,1,-14,-7,11,7,-1,0
7338271461,1,-3,-4,-11,0,7,2,-1
7338287151,2,7,15,3,16,6,6,2
7338287151,0,9,1,-1,-5,-6,-6,1
7338293873,3,4,9,12,5,12,6,1
7338293873,-3,-9,-3,-4,-2,-1,-3,-3
7338310237,0,-2,-14,-38,-20,-21,-4,0
7338310237,-10,5,-3,21,-15,-6,-7,-6
7338311846,3,-3,18,0,16,8,1,1
7338311846,7,-2,-19,6,24,4,2,6
7338323992,2,6,-2,-2,-10,4,1,-2
7338323992,-4,-12,-7,-18,-15,-13,-14,-7
7338332906,-5,-11,6,16,-8,-1,4,2
7338332906,0,-1,2,16,11,0,2,1
7338347128,-2,-4,-6,-13,-5,-1,-3,-1
7338347128,4,10,8,17,4,6,4,0
7338353911,6,-1,-11,-13,-3,-14,-2,1
7338353911,-5,2,9,-4,-9,7,-10,-3
7338370262,-7,-1,-1,9,6,-10,0,-1
7338370262,-1,3,-3,-5,0,-4,-7,0
7338371860,1,7,3,10,-4,2,1,-5
7338371860,-6,0,-1,-2,-5,-6,8,-3
7338383947,-4,-4,-2,2,-9,6,-12,-2
7338383947,3,-8,-5,-16,-8,-16,0,0
7338392916,6,-13,-8,2,2,9,0,0
7338392916,-2,-15,0,-4,-5,-10,1,-2
7338407165,-2,4,1,-1,0,0,2,-2
7338407165,0,-4,-3,-4,5,1,0,-2
7338413958,-21,-2,-6,4,2,6,1,-3
7338413958,19,14,6,2,-1,-4,-7,0
7338430768,-10,-6,2,2,3,-2,4,3
7338430768,-25,-1,-2,-8,2,8,-6,-10
7338432354,11,-5,2,7,-2,-10,-3,8
7338432354,0,-5,-3,-1,-4,0,-3,0
7338443982,11,7,6,4,3,2,0,1
7338443982,2,8,-1,-8,-3,-4,1,-1
7338452854,-8,-15,-11,-2,-5,0,-3,-3
7338452854,-1,5,4,1,-8,-6,-1,-1
7338467058,0,-9,-7,-12,-1,2,1,-2
7338467058,9,11,7,11,6,6,8,3
7338474035,-10,3,-2,-12,-5,-1,-2,0
7338474035,-5,4,-3,8,9,3,0,0
7338490275,19,-8,3,1,-7,-9,-6,-5
7338490275,-26,5,-4,-22,-10,-9,-7,-2
7338491896,17,-3,-3,10,-2,-1,1,1
7338491896,-7,-2,-13,-16,-2,3,5,3
7338503871,-23,-6,-3,-10,-6,-5,-5,-8
7338503871,13,-3,5,27,17,6,2,0
7338513008,1,4,1,-13,-5,0,1,-1
7338513008,2,48,13,13,-3,-3,-2,-2
7338527156,17,25,7,7,4,-1,1,4
7338527156,-4,-36,-7,-4,-4,-3,-3,-2
7338533955,6,8,-13,-21,-6,-7,-6,-1
7338533955,-12,-44,-4,3,8,1,1,-3
7338550321,-30,35,12,5,0,3,-1,-10
7338550321,11,9,-10,-9,-8,-2,-1,8
7338551961,17,42,22,16,-2,-3,2,4
7338551961,-20,-43,-20,-15,-7,-4,-10,-11
7338563937,36,15,8,7,-4,-2,-2,3
7338563937,-35,2,-2,-14,-9,-3,6,-1
7338572842,-9,8,-7,-1,10,5,-14,-12
7338572842,11,12,10,14,-1,0,-1,3
7338587055,-8,1,-2,15,1,-10,-3,0
7338587055,24,13,-9,-24,-6,8,-2,3
7338593930,4,4,3,14,6,-4,13,6
7338593930,3,13,24,15,-5,-4,-2,-1
7338610319,-7,-38,-34,-17,13,14,4,-4
7338610319,-6,9,11,12,-1,-10,0,1
7338611900,-2,-8,-15,-23,-13,6,-11,-13
7338611900,-14,-29,-5,11,16,15,2,5
7338623933,9,11,-10,-13,-6,-17,5,7
7338623933,7,4,4,-7,-17,-5,-3,-2
7338632796,-10,-16,-1,5,6,-1,-1,-4
7338632796,16,15,-1,0,-5,-8,-6,2
7338647160,-9,2,-4,3,18,16,6,1
7338647160,-8,-19,-3,12,31,-1,-1,-3
7338653942,2,-9,5,-2,1,-2,-3,-3
7338653942,-1,-9,-27,-51,-45,-15,-7,-9
7338670337,-2,-17,2,16,-8,3,-4,-3
7338670337,-5,-23,1,11,16,-3,-3,-2
7338671800,-16,-26,22,56,12,10,7,1
7338671800,-3,4,-3,-14,-8,6,2,-3
7338683927,3,-11,-9,-11,10,7,4,5
7338683927,7,4,-12,-27,-10,1,3,1
7338692825,-1,-9,-20,-70,-15,-23,-2,-1
7338692825,-14,-4,22,60,8,11,14,-4
7338707611,9,1,-4,9,37,-22,-2,2
7338707611,-5,-8,-13,-3,-17,36,-12,-4
7338713971,8,14,-10,13,2,-9,9,5
7338713971,11,0,8,-10,-3,-12,0,7
7338730211,-3,8,34,-14,-14,8,14,-2
7338730211,19,21,-20,10,36,3,7,5
7338731794,-18,-13,5,-8,-11,7,-16,-9
7338731794,0,6,-3,-22,2,-20,-3,2
7338752790,-7,8,16,9,-23,8,-1,-4
7338752790,3,1,-3,-6,-7,-3,-9,2
7338754469,-2,4,18,35,-6,7,-3,0
7338754469,-4,11,-11,-22,8,-7,0,-3
7338767020,-8,-7,-3,-6,-9,-4,-7,-2
7338767020,0,-15,6,-5,-12,-7,-6,-4
7338773931,7,-19,2,9,11,-2,11,2
7338773931,-1,-10,2,3,4,19,-7,-3
7338790282,1,-15,-12,-10,-6,-26,3,-1
7338790282,-16,-13,8,7,-2,32,9,-3
7338791939,-33,-21,-3,-1,-2,-2,3,-3
7338791939,-3,-3,-1,1,2,0,-4,4
7338803925,11,-4,-7,7,3,-9,4,3
7338803925,13,6,3,1,-7,-19,1,-5
7338812840,5,37,5,-3,-1,4,-17,3
7338812840,13,8,-3,-2,6,8,-4,0
7338827109,0,9,-1,-4,-9,-5,-2,-2
7338827109,-4,-3,4,1,-3,-11,-2,-1
7338833892,0,-10,-5,-5,-3,3,-3,2
7338833892,3,-17,0,-4,-7,-10,-2,-4
7338850254,-3,-7,-8,5,5,10,-13,-4
7338850254,-6,1,8,4,-9,-8,0,-1
7338851779,-11,-8,-10,-11,-3,1,1,-3
7338851779,13,-1,-12,-10,6,1,0,2
7338863931,5,14,-10,-8,-14,-6,-7,0
7338863931,-4,6,1,-3,-10,-5,-4,-5
7338872921,-13,-1,6,13,15,3,7,-3
7338872921,-7,10,9,9,6,5,4,-2
7338887074,-14,-3,-9,12,10,12,-2,-2
7338887074,5,10,1,-15,-7,-13,-4,-1
7338893931,14,22,-15,-10,-11,-9,-9,-1
7338893931,-3,17,16,16,-5,-6,-3,-4
7338910274,-12,-32,-1,2,-1,1,-7,-3
7338910274,6,0,-2,-10,-3,-4,-2,1
7338911802,7,32,13,-9,-4,-2,4,0
7338911802,-11,6,-14,2,6,7,3,-2
7338923834,-12,-35,-11,-8,0,-1,-1,-1
7338923834,7,-31,-12,-2,-3,-3,-3,-1
7338932831,5,4,11,0,-4,-2,-1,3
7338932831,6,1,0,-8,-6,-4,-2,-4
7338947087,1,-25,8,-16,-12,-1,0,0
7338947087,-24,9,0,14,17,3,3,-4
7338953962,16,36,0,-4,3,-3,3,0
7338953962,-1,-20,4,11,-4,9,0,4
7338970252,6,19,-7,-5,-6,-2,2,1
7338970252,-19,-27,1,3,5,1,-6,-9
7338971889,13,6,-6,-2,-5,-2,-2,0
7338971889,-8,29,24,11,0,-16,4,4
7338984436,14,4,-35,-27,13,33,-3,2
7338984436,11,-4,5,11,-1,-4,-4,-2
7338992857,-4,10,-3,-2,1,1,0,1
7338992857,-13,-24,-9,-13,-21,-16,-9,-9
7339007132,-6,-10,17,33,4,2,3,0
7339007132,16,23,1,-3,9,-15,1,4
7339013830,-12,-43,-6,8,-10,17,-2,-6
7339013830,9,-7,-5,0,-2,-16,-3,2
7339030301,-11,13,5,19,1,5,2,-1
7339030301,-1,6,-2,-6,2,-1,3,1
7339031798,3,-9,-2,-18,-13,-13,-5,-4
7339031798,-1,0,-6,2,12,6,3,-1
7339052080,-4,4,7,-4,-12,-8,-6,1
7339052080,2,-4,8,-2,-3,-4,-3,-2
7339052789,-3,-23,-8,0,-8,9,3,2
7339052789,-7,-9,-5,7,6,3,1,-4
7339067770,10,-3,-5,-12,6,-24,-11,-6
7339067770,-9,-12,12,10,-16,27,10,0
7339073906,-11,-3,20,20,21,-8,1,-2
7339073906,3,-1,-5,-12,-16,-4,-8,-5
7339089506,-8,3,0,-25,-7,-7,0,-6
7339089506,-6,1,-10,-2,6,6,4,0
7339090287,-2,-11,-5,5,-7,-20,-12,-6
7339090287,5,-2,11,-4,7,19,5,-1
7339112048,-21,-21,17,-37,-22,1,4,-3
7339112048,-1,5,-20,4,-26,-14,-9,-4
7339112761,5,-6,-4,-12,11,18,4,-1
7339112761,-11,-8,-16,-12,-1,-17,-2,-1
7339127820,7,2,11,31,-4,1,-5,-2
7339127820,-5,6,22,-32,15,1,1,0
7339133922,1,1,-18,-8,-7,-7,1,2
7339133922,0,13,20,51,-6,5,-2,4
7339148911,6,13,-37,-47,18,17,13,3
7339148911,8,6,6,40,-8,-23,-8,-1
7339156393,2,2,0,0,0,15,1,0
7339156393,1,4,-10,-3,12,3,-1,-2
7339173492,0,14,9,13,-14,-13,-11,-5
7339173492,-2,5,-9,-10,3,18,7,1
7339174291,-3,-11,2,3,6,-1,-9,-1
7339174291,-4,-19,-17,-18,-12,-16,-6,-7
7339187855,8,-3,13,20,0,-25,-13,3
7339187855,11,5,-13,-9,6,32,10,2
7339193790,-11,-8,0,5,2,6,6,3
7339193790,-8,-9,-3,-15,-7,0,0,-4
7339208882,0,-2,0,5,1,-6,-2,-1
7339208882,-9,-10,0,2,1,-20,-12,-3
7339216396,23,8,1,-2,-3,0,7,3
7339216396,-2,1,-6,-7,5,14,-5,1
7339232061,-5,2,1,7,0,11,4,-3
7339232061,-5,6,-4,1,2,-3,0,-2
7339232780,-8,-7,2,0,-7,-7,-4,-6
7339232780,2,-15,-7,-20,-6,-18,-9,-3
7339247784,-1,-4,-1,22,4,4,6,0
7339247784,4,-4,4,-2,-2,6,1,1
7339253750,-5,-13,-7,-10,-3,-14,-2,-2
7339253750,1,7,8,-5,-2,3,0,1
7339268885,2,1,-5,0,-5,2,6,2
7339268885,-17,-1,-6,0,4,-7,-2,-6
7339276400,26,22,19,1,-6,-1,-1,3
7339276400,-13,25,-2,-1,6,7,4,1
7339292036,3,-36,-11,1,5,8,2,-2
7339292036,-31,-9,-3,1,-8,-13,-9,-5
7339292837,3,52,-18,-12,-1,-1,-5,-4
7339292837,31,19,0,-11,-8,1,2,10
7339307838,-30,34,8,9,-4,-8,-3,0
7339307838,13,-13,3,9,4,1,-3,-7
7339313909,-18,-15,11,-8,-6,-1,0,4
7339313909,24,7,-17,8,5,-2,0,0
7339329029,0,-5,5,3,12,4,7,1
7339329029,-1,54,5,-5,-5,-1,-2,3
7339336362,7,-7,-3,-6,-11,-7,-2,-1
7339336362,-22,-37,-10,-7,1,-1,-3,-5
7339351955,1,4,27,33,9,9,0,1
7339351955,-5,-9,-6,-14,3,-4,2,1
7339352760,-31,-38,-3,18,4,0,-4,-7
7339352760,-2,20,15,-13,-7,0,1,-7
7339367831,8,10,-11,-17,-16,-15,-7,5
7339367831,19,-7,-16,-3,10,6,15,5
7339373830,2,24,12,20,4,10,11,2
7339373830,3,-27,-17,-13,-2,5,-15,-6
7339388927,-17,30,9,-12,-3,0,-6,1
7339388927,20,-3,8,11,22,17,3,0
7339396403,11,-10,-3,-15,-21,-24,-5,4
7339396403,-30,-10,2,15,13,1,0,-2
7339412091,10,5,-4,10,23,20,8,2
7339412091,-6,-12,2,11,-24,-11,-10,-3
7339412759,-4,-18,-6,-17,-5,-10,12,1
7339412759,7,4,12,13,-8,8,-3,4
7339427774,7,-5,-11,2,20,-4,0,-8
7339427774,8,-3,8,-9,-8,3,-8,4
7339433882,-8,-12,-25,-7,15,2,-8,-5
7339433882,-17,0,2,-2,1,-18,4,0
7339448793,4,-7,-8,-12,-16,5,-7,0
7339448793,-8,8,27,11,8,6,4,-4
7339456391,9,-10,-19,-5,-14,-11,-14,-7
7339456391,-3,-9,-8,-37,2,7,-5,-2
7339472093,-5,-20,-4,12,15,-9,-5,-4
7339472093,1,2,-11,-13,-16,-13,-5,-3
7339472770,7,30,18,-8,1,13,1,5
7339472770,-4,-13,8,58,21,-4,13,-4
7339487798,3,0,-11,-36,-22,-16,-6,-1
7339487798,-5,-10,26,24,-7,1,-3,1
7339493827,-6,0,-27,-50,22,1,4,-2
7339493827,11,7,-8,1,-15,7,-1,0
7339508837,1,1,22,9,-13,-11,-2,-4
7339508837,-16,-8,8,13,-4,-11,-1,-5
7339516418,-4,-18,-4,-27,-1,1,0,-5
7339516418,6,16,3,-14,1,1,4,2
7339531777,-8,-8,-9,7,-13,13,0,-4
7339531777,0,-13,-22,-1,5,-5,0,-1
7339538918,-8,8,10,28,-17,-10,-6,-6
7339538918,-2,12,11,-5,-4,-3,-3,-3
7339547881,4,-6,-13,-1,-3,-6,-1,3
7339547881,10,10,-6,-24,-10,-12,8,5
7339553938,-7,-7,-1,21,18,21,-1,-3
7339553938,12,38,16,17,-8,-17,-5,3
7339568931,-8,-9,-11,-10,-11,-1,-3,-7
7339568931,1,0,1,1,16,-6,5,3
7339576427,6,-2,14,9,-1,2,0,9
7339576427,3,-19,-9,0,5,34,12,1
7339592062,3,8,5,-5,-4,-6,-6,-2
7339592062,-10,-26,-24,-26,-6,7,-21,-5
7339592729,9,3,8,22,0,-18,11,6
7339592729,-21,-3,-2,-8,-8,-6,-3,-2
7339607807,-1,-2,-3,-6,8,8,10,-7
7339607807,0,-6,-4,2,4,10,-17,-1
7339613850,20,-9,2,7,-1,-8,4,8
7339613850,-2,-23,3,-3,3,17,2,4
7339628912,-6,-32,-7,-12,-8,-17,5,-9
7339628912,-2,-4,-1,0,0,6,-8,-3
7339636393,-19,-11,-2,3,-1,-6,2,-7
7339636393,2,-15,-10,-14,-6,-7,-2,-4
7339652078,-18,4,9,6,0,15,12,2
7339652078,28,18,-2,-2,2,-2,10,4
7339652755,-10,8,-9,-6,-5,-8,-15,-4
7339652755,-6,6,-2,3,2,-3,2,-5
7339667803,18,29,8,3,-2,-9,-12,7
7339667803,-15,-13,-9,-3,-4,-7,-2,-7
7339673866,31,11,0,-5,1,15,7,4
7339673866,-16,-8,-17,-7,-2,-12,-9,0
7339688917,-22,7,42,30,-1,2,-3,-5
7339688917,4,31,-37,-30,-10,-7,0,3
7339696443,-8,15,-17,-33,7,5,-2,1
7339696443,13,-8,24,41,-21,-11,-8,-12
7339712085,-2,14,-84,-98,8,1,-3,6
7339712085,-6,-15,16,6,-11,2,9,-6
7339712727,-4,62,-28,12,7,6,0,1
7339712727,28,-80,-8,-5,-13,-12,-7,3
7339727847,-15,32,40,14,24,11,9,5
7339727847,-30,-1,-7,-4,1,-4,6,-4
7339733842,-2,6,-16,-26,-22,-9,-28,-11
7339733842,18,-5,11,22,8,0,1,6
7339748807,23,40,21,23,-3,11,3,5
7339748807,-37,-105,-42,9,5,-6,3,-12
7339756419,6,-4,12,9,-2,1,-5,4
7339756419,-4,71,-5,-27,-9,-12,-6,-5
7339772051,9,3,0,13,11,10,8,3
7339772051,16,43,26,15,-6,1,-2,9
7339772815,-9,-8,9,0,5,-7,2,-2
7339772815,-3,3,-3,0,6,-3,-5,0
7339787893,-11,2,-12,-17,-41,-1,10,-4
7339787893,14,45,-1,0,3,-10,-30,-7
7339793909,0,-9,21,34,17,27,15,4
7339793909,-13,-11,7,-7,2,8,11,3
7339808837,-1,-52,-10,1,39,3,-13,-6
7339808837,6,-5,10,17,-1,-10,-6,0
7339816340,23,-24,7,-10,-17,-18,0,-3
7339816340,-27,-8,-10,-26,0,14,6,5
7339832014,2,-37,-24,-29,-25,-14,-7,-9
7339832014,7,-8,10,-15,-9,-2,-4,0
7339832804,-15,-18,6,30,21,-6,-9,-7
7339832804,14,11,-8,6,-6,13,12,2
7339847762,2,-25,6,16,11,-13,-4,1
7339847762,-4,-3,3,-23,-18,11,7,2
7339853875,-8,-9,-6,40,-7,-6,3,-5
7339853875,-5,7,2,-4,9,8,3,-3
7339868791,1,-1,10,-5,-14,-1,-5,-2
7339868791,14,12,-9,8,11,-8,5,4
7339876425,-7,2,-7,-16,5,7,10,1
7339876425,-5,3,1,18,5,0,-5,-4
7339891986,-4,10,-4,-16,-4,-3,-7,-1
7339891986,2,11,2,-12,-10,0,10,0
7339892805,-4,6,-8,-41,-40,-4,-8,-3
7339892805,0,-3,-6,16,16,-4,-1,-1
7339907804,5,1,27,57,5,-9,-4,1
7339907804,-3,2,-15,-49,-9,6,1,-1
7339913789,-8,-10,-3,9,9,1,-1,-3
7339913789,-5,-7,-12,-9,3,-9,-3,-3
7339928894,-8,-10,5,-8,-22,-5,-1,0
7339928894,5,-8,-3,17,25,7,2,-1
7339936384,-5,-11,9,-16,-14,-2,-2,-1
7339936384,10,12,-1,5,3,-27,-5,1
7339952070,-1,-4,-7,0,-1,18,-3,-1
7339952070,1,6,6,-2,-8,0,0,2
7339952757,-3,-3,7,8,4,-7,8,-3
7339952757,10,18,10,0,-1,11,-1,1
7339967787,-1,2,-21,-4,5,4,-2,1
7339967787,-2,-1,11,10,4,-8,-5,-1
7339973881,8,8,0,3,-1,6,13,0
7339973881,-27,-8,-1,-9,3,0,6,-3
7339988772,-12,-8,-2,-2,-7,-13,-4,-8
7339988772,8,-5,0,11,6,6,0,4
7339996384,4,0,8,-1,4,-15,-5,-1
7339996384,10,-2,-5,-15,-6,16,-15,0
7340011896,-4,-11,1,6,1,-1,12,0
7340011896,-9,-1,3,6,-2,-8,-1,-2
7340012686,8,-4,-7,-3,1,2,-5,0
7340012686,-4,12,0,-8,-5,-7,-6,-2
7340027744,-3,-4,-4,2,2,-1,-5,-2
7340027744,3,6,6,0,1,1,0,3
7340033716,-14,-6,-1,0,1,5,0,1
7340033716,15,3,3,4,0,-1,4,1
7340048747,5,14,-2,-2,-2,-5,1,3
7340048747,-14,-9,-3,-1,2,0,2,-5
7340056240,-10,-5,4,-1,-1,4,-6,-1
7340056240,-5,-6,-8,-10,0,-8,1,-1
7340071900,8,2,7,11,2,1,-2,2
7340071900,1,5,-2,0,-1,3,-3,-2
7340072714,-14,-4,5,-5,4,2,-3,-2
7340072714,29,6,-6,1,-5,-6,-1,2
7340087762,-41,2,-12,6,-2,-7,-8,-8
7340087762,7,7,10,4,-8,0,-1,-4
7340093729,4,13,-6,-13,-5,-4,-2,4
7340093729,-14,-44,0,5,14,6,5,-3
7340108747,25,-11,-14,-10,3,3,-3,1
7340108747,-20,19,11,-2,-8,-5,-1,0
7340116256,2,5,-13,-14,-3,-3,-8,-7
7340116256,2,66,22,-3,-19,-9,-4,4
7340131233,9,-18,2,18,20,8,1,1
7340131233,-17,-73,-6,5,4,9,4,-6
7340138781,11,-54,-5,5,1,0,-3,0
7340138781,18,11,-5,-13,0,-1,7,6
7340147734,-8,50,17,-4,-15,-11,-13,-2
7340147734,-8,2,1,6,4,-2,-6,-9
7340153691,-22,-29,-5,4,-2,3,2,2
7340153691,-10,-22,-11,4,0,-5,-4,-7
7340168722,14,-4,-8,-7,-8,4,6,1
7340168722,-1,31,-2,-3,14,-5,1,12
7340176229,-4,21,2,3,3,8,-17,-14
7340176229,-2,15,5,7,-12,-10,8,1
7340191217,9,-11,-7,9,14,16,3,0
7340191217,29,14,2,16,6,3,-6,4
7340198748,-4,12,-6,-3,-15,-4,3,-3
7340198748,-20,-20,-10,-34,-13,-15,-10,-7
7340207682,10,-7,-1,15,-9,-3,-4,0
7340207682,-13,-3,-5,-1,-3,2,5,1
7340213725,19,1,8,-1,-7,-16,-3,4
7340213725,-9,-16,-1,23,29,12,14,0
7340228747,0,6,0,-19,-11,-12,-22,-3
7340228747,-3,-8,-15,-5,6,-2,-1,-4
7340236275,1,10,22,16,-7,3,2,4
7340236275,-16,-2,-7,-12,4,-8,-15,-13
7340251214,-1,-3,-4,-21,-8,-6,6,2
7340251214,16,6,3,20,11,-11,-2,-1
7340258696,-21,-9,8,-15,3,11,-3,-9
7340258696,5,-11,-9,-19,-21,12,4,0
7340274491,13,9,0,24,6,-2,10,5
7340274491,-3,9,19,-14,-24,-5,-3,-7
7340275311,-2,-9,-33,44,68,27,18,7
7340275311,4,9,10,-35,0,7,-2,1
7340288780,-16,-23,-16,-8,-38,-22,-11,-13
7340288780,-2,-23,-13,-9,-15,-1,1,1
7340296341,5,11,0,-18,-31,-17,0,0
7340296341,-3,-3,0,53,21,7,0,1
7340311375,2,3,-5,-18,2,-7,2,2
7340311375,5,-2,-25,-3,1,2,-3,3
7340318843,-10,-25,8,-13,-9,3,-5,-2
7340318843,-5,-8,-2,6,-3,13,5,-4
7340334464,-2,29,16,-10,7,-1,-9,5
7340334464,1,1,-10,-15,-3,-12,-4,-9
7340335340,18,36,2,12,6,7,8,3
7340335340,2,12,-5,-11,-8,-12,-1,2
7340348869,-4,-9,6,1,8,13,2,-3
7340348869,-18,-23,-2,-1,1,7,-3,-2
7340356378,5,-11,-6,-8,-6,-12,-4,-2
7340356378,27,-10,-1,11,-5,-11,-5,2
7340371366,-17,-19,5,4,4,-9,2,-3
7340371366,-23,-30,0,-5,-1,17,4,-5
7340378853,-8,-11,-3,-2,-7,-22,-3,0
7340378853,4,16,-2,-15,0,8,-6,0
7340394508,30,7,-8,7,5,1,2,0
7340394508,8,30,12,7,-2,0,9,4
7340395220,-8,0,4,-15,-2,-3,1,-2
7340395220,-1,-6,21,28,0,0,-6,-1
7340408792,-8,-22,-25,-32,3,6,6,-4
7340408792,-3,-8,0,6,-4,-9,-7,1
7340416406,12,3,0,-8,-2,7,-2,0
7340416406,-2,-11,-8,4,-2,-8,-2,1
7340431399,-21,-4,7,0,-4,1,-2,-4
7340431399,6,0,-1,-6,0,-3,-6,-1
7340438874,-5,-1,-6,-2,0,-1,-4,-2
7340438874,4,-3,2,-7,-4,1,1,-3
7340454431,-15,14,2,3,2,1,1,2
7340454431,5,21,1,-4,-3,1,1,3
7340455372,-6,6,-1,3,-3,-1,-2,-1
7340455372,9,15,-4,-4,0,-2,2,0
7340468870,-10,13,3,5,0,2,-3,-4
7340468870,12,11,5,-2,-5,-4,0,-1
7340476291,4,4,-9,1,12,7,6,2
7340476291,-4,11,-3,-6,-2,-3,2,4
7340491354,-4,-16,7,2,3,0,-5,-2
7340491354,-19,-34,-14,-10,-8,-5,-10,-12
7340498877,2,20,-3,6,-4,-2,-6,-8
7340498877,-13,12,5,-12,-5,2,5,7
7340514526,12,-3,-1,14,4,1,4,5
7340514526,-9,-28,1,1,-8,-5,1,-3
7340515218,5,19,4,-12,-6,-5,-6,-2
7340515218,-31,-8,-3,-3,-1,-4,-5,-12
7340528888,14,0,-2,-11,2,3,6,6
7340528888,14,23,2,6,9,5,10,8
7340536385,1,-26,-11,-6,-12,-1,-17,-5
7340536385,-4,-10,-1,20,8,2,-1,-4
7340551388,15,40,10,-7,-8,-8,-8,2
7340551388,-28,20,2,6,6,-1,6,-7
7340558889,0,10,4,4,-7,-3,1,7
7340558889,-9,-35,-7,-4,-6,-5,-10,-13
7340574492,14,-21,-9,-35,-24,-2,-1,-5
7340574492,-4,-17,4,41,25,0,5,1
7340575191,4,1,-3,0,7,-3,2,4
7340575191,4,-28,9,0,-6,7,-3,1
7340588859,-15,-59,-29,-9,4,-2,-3,-7
7340588859,9,21,-5,-38,-15,-3,14,0
7340596244,-14,-16,-3,-8,-14,-1,-22,-10
7340596244,6,2,-2,7,-4,0,-1,7
7340611348,10,8,23,30,21,6,7,-1
7340611348,-18,-20,-7,-16,9,2,-3,4
7340619585,-3,-24,11,6,-3,-2,14,1
7340619585,10,26,0,-7,2,-5,-6,-3
7340634408,-6,6,-10,-18,-14,0,-2,-1
7340634408,-12,-17,-9,21,-1,-8,-16,-11
7340635246,11,14,11,1,3,0,4,2
7340635246,-4,2,10,0,-11,-6,-1,0
7340648860,-23,-8,-3,16,6,5,0,-1
7340648860,20,19,-1,13,38,9,2,-2
7340656297,3,1,-6,-7,10,11,3,-1
7340656297,21,13,-8,-14,2,-6,2,5
7340672716,-48,-5,11,-2,-22,-11,-3,-8
7340672716,17,11,0,-28,-13,-5,-5,3
7340679585,-18,-11,-8,20,1,3,3,-3
7340679585,-5,-5,-2,-5,10,1,1,-1
7340694467,11,9,-13,1,-15,0,-2,4
7340694467,4,-4,-1,-27,-18,-11,-10,-4
7340695214,5,10,29,23,14,2,10,6
7340695214,-12,-5,-10,10,-6,1,-3,-9
7340708871,4,12,-13,-11,8,-1,-1,-1
7340708871,5,-3,0,-11,-20,-2,-4,-1
7340716346,-1,-5,-17,-19,4,0,5,4
7340716346,-2,16,17,2,5,-3,2,2
7340731342,-7,-2,-4,13,0,7,-3,-5
7340731342,1,-8,-4,0,5,8,4,2
7340739604,-4,-1,-3,2,-11,-8,-5,-5
7340739604,-1,-4,-13,-16,-8,-10,-3,0
7340754508,11,9,6,5,10,0,0,1
7340754508,5,0,-3,5,-6,3,-7,3
7340755207,-9,-6,-3,5,4,5,2,-3
7340755207,-3,-3,-7,2,-4,0,0,0
7340768878,9,6,8,-1,4,-4,1,3
7340768878,-10,2,-3,3,-4,0,-3,-3
7340776376,2,-3,1,-3,-4,-10,-2,0
7340776376,2,4,-5,-10,1,12,5,-2
7340791360,0,8,5,0,-1,-7,-6,-1
7340791360,4,2,6,5,1,3,3,5
7340799531,-1,-7,-4,-4,-2,0,0,-2
7340799531,10,-10,-1,0,1,-3,1,-1
7340814489,-14,-18,-1,2,2,1,-4,-6
7340814489,-2,-3,1,2,-4,-6,-2,0
7340815243,4,6,-3,-5,-1,-2,-5,1
7340815243,7,-6,0,3,2,2,0,0
7340837051,-12,-22,3,9,4,-10,0,0
7340837051,-1,-8,-5,-4,-5,2,-2,-1
7340837707,-2,5,2,-4,-2,6,-6,-3
7340837707,-4,1,1,8,0,-5,-3,-5
7340851377,23,18,-3,-8,-3,-1,4,5
7340851377,2,13,3,-4,-6,-6,-5,1
7340859547,-30,-4,-2,0,0,-3,0,-5
7340859547,-6,1,-5,-5,-5,1,-1,2
7340874537,-3,-10,1,-1,0,3,-3,-3
7340874537,4,6,-1,1,-4,-2,-1,-2
7340875194,2,-5,4,-4,-7,-5,-2,-2
7340875194,5,-2,-1,7,2,-2,-1,2
7340897001,5,6,-9,-8,-5,3,-2,0
7340897001,6,-3,12,15,10,5,7,4
7340897674,-35,-21,-11,-20,-6,-1,1,-10
7340897674,-1,14,-8,6,7,3,-5,0
7340911327,32,45,13,9,9,3,-2,-2
7340911327,-13,-21,15,28,-10,-1,-1,0
7340927074,22,18,-10,-11,10,-5,-4,2
7340927074,-15,-43,-8,-26,-8,-4,1,2
7340934479,0,14,1,4,-12,-5,-2,-2
7340934479,8,-10,-22,-23,6,1,6,2
7340935194,14,44,17,20,7,6,-1,4
7340935194,-8,26,17,-2,0,-1,-1,-2
7340956975,-35,-82,-22,6,-5,-10,-7,-10
7340956975,-27,-1,-1,-2,-6,-2,-3,-11
7340957625,28,7,-11,-6,-5,-2,4,7
7340957625,11,9,-3,-11,-6,0,12,0
7340971333,30,-22,8,-3,-3,4,-12,13
7340971333,-18,13,-1,1,9,0,-4,-6
7340979531,-11,-13,3,10,5,5,2,-4
7340979531,23,45,6,8,-3,-7,-7,-2
7340994466,-27,13,-7,-14,-9,1,11,2
7340994466,21,13,-4,-11,-6,-7,-9,-6
7340995139,-16,-4,-9,-11,7,5,-4,-1
7340995139,-12,-24,11,34,-3,0,0,-5
7341008844,7,10,-13,-42,0,6,-2,6
7341008844,9,1,-7,21,29,-7,-1,1
7341016329,4,-7,4,-2,-42,-6,-2,-3
7341016329,-7,-17,-4,37,31,3,-2,1
7341031387,-6,-2,16,21,-9,-14,-5,-8
7341031387,-6,-15,-18,-31,-14,2,-1,1
7341039544,5,-18,-3,15,-5,-9,-1,6
7341039544,-8,-20,3,-11,16,12,5,-2
7341053833,6,14,-1,9,7,12,7,1
7341053833,3,11,18,6,-6,-6,1,-3
7341062064,-5,-23,-4,-10,-14,-2,-2,-6
7341062064,-4,-4,-14,5,6,0,0,1
7341076850,-9,-5,0,8,24,1,-1,-6
7341076850,7,-4,2,-5,-11,-6,0,3
7341077825,5,4,7,-6,-7,4,3,0
7341077825,-1,6,1,46,2,-3,1,3
7341091306,-8,-8,-38,-63,-20,-8,-8,-7
7341091306,-2,-15,25,66,19,13,6,0
7341099558,-1,-2,-32,-25,31,4,-1,0
7341099558,-1,12,5,-5,-29,-10,-8,-5
7341113831,-1,2,-6,-39,-11,-16,-5,-2
7341113831,-3,11,23,34,11,9,7,-2
7341122076,9,7,-12,-20,6,0,1,6
7341122076,-2,13,0,1,8,15,1,-4
7341136959,-13,1,7,11,-4,-9,0,-3
7341136959,-1,-11,13,-29,-10,-17,-6,-2
7341137667,2,2,33,50,10,21,7,-3
7341137667,-9,2,-22,-57,-12,-19,-11,-1
7341151347,5,16,11,23,3,15,15,2
7341151347,1,2,-18,-18,-7,-12,-48,-1
7341159438,-23,-7,0,3,-9,-1,36,-3
7341159438,6,-23,-9,-23,-11,2,5,1
7341173839,1,-5,10,17,2,-12,14,-6
7341173839,5,-7,-14,-6,3,22,-37,2
