timestamp,emg1,emg2,emg3,emg4,emg5,emg6,emg7,emg8
6620859048,0,-26,-3,0,-6,-2,-1,-1
6620859048,2,46,4,5,0,-4,-1,0
6620859749,-4,-13,-9,-15,-3,-2,-5,-4
6620859749,3,-36,-1,6,0,1,4,2
6620860606,4,34,2,4,4,-3,7,1
6620860606,-6,-3,0,0,3,7,-2,-4
6620861301,-5,-33,1,4,2,5,3,0
6620861301,-3,16,-3,-4,-7,0,-3,-3
6620871292,2,19,-3,-11,-3,-7,0,-1
6620871292,2,-29,3,3,-5,-5,-4,1
6620880722,0,3,0,-1,1,-1,2,-3
6620880722,-3,21,-3,-4,-2,-1,-3,0
6620886298,-4,-17,4,4,6,5,-1,-5
6620886298,5,-14,-8,-8,-8,-2,-2,0
6620901860,-4,19,3,-2,-3,-10,-7,-2
6620901860,1,-2,1,0,3,2,5,-1
6620910034,2,-16,2,7,4,3,-10,1
6620910034,-11,-1,-5,-6,1,3,3,-3
6620916347,4,9,1,0,-9,-7,-3,1
6620916347,-3,-12,2,-3,-6,-6,-7,-3
6620931405,-5,-2,-12,-19,-6,-6,-5,-5
6620931405,4,6,-7,10,4,1,1,1
6620978751,-3,31,-2,-12,-2,-5,-3,-2
6620978751,4,21,2,12,3,4,1,2
6620979471,-4,-37,0,-8,0,-2,0,1
6620979471,-1,2,-1,10,6,7,1,-2
6620980311,-2,16,-2,1,-14,-7,-4,-1
6620980311,-6,-21,-2,-10,-5,-15,1,-6
6620981143,-8,-12,-6,-3,4,14,-12,1
6620981143,9,36,1,-2,5,-1,6,2
6620991128,2,-13,-1,-5,1,3,0,1
6620991128,4,-27,-1,-1,-3,-2,0,-1
6620999341,-5,32,5,5,-2,-4,1,-5
6620999341,-13,-1,-8,-10,-7,-3,-5,-3
6621006130,1,-34,-4,-5,1,4,-1,0
6621006130,4,15,4,3,1,5,1,1
6621021792,5,23,1,5,0,-5,3,2
6621021792,-2,-22,3,2,4,0,0,-4
6621028603,1,-9,-1,-1,-5,3,-5,0
6621028603,-10,19,-2,-9,-4,-1,-2,-1
6621036809,11,0,-1,-10,-8,-6,-3,0
6621036809,-3,-22,0,-2,-6,-5,1,0
6621051131,1,12,1,2,-1,-3,-2,-1
6621051131,5,6,7,4,0,-4,-3,-3
6621059336,8,-10,-7,-2,-2,-1,-8,-1
6621059336,-6,6,0,4,3,2,8,-3
6621066082,-1,13,6,4,2,0,-29,0
6621066082,-2,-10,-5,-4,-2,2,4,1
6621081768,-7,-10,-2,1,0,-12,0,-6
6621081768,1,10,-2,-4,-6,6,-6,-2
6621088620,-3,-8,1,3,2,2,15,-1
6621088620,-8,-14,-5,-2,-2,-3,-42,-5
6621096164,1,22,0,0,-3,4,24,7
6621096164,0,0,-2,-1,0,-10,0,-4
6621111100,-4,-11,2,3,-1,8,12,-2
6621111100,-11,-2,-6,-4,-5,-14,-2,-11
6621119308,20,5,1,-2,0,9,17,-6
6621119308,0,-7,-2,-5,-2,-4,-66,18
6621126124,-3,1,-6,-2,-1,-14,10,6
6621126124,-18,-6,-3,-1,1,6,-4,-2
6621141741,-19,-10,-3,-1,-2,-10,-19,-20
6621141741,13,-13,-5,-12,-12,7,2,4
6621148580,51,43,37,16,12,6,9,18
6621148580,-72,-47,-39,-11,-2,-4,-5,-4
6621156042,6,-6,-1,3,1,-2,-10,4
6621156042,10,5,-1,-7,-6,-13,5,-5
6621171120,-20,-102,-18,-7,-1,1,-3,-11
6621171120,18,32,4,7,-1,2,18,-2
6621179369,11,24,18,13,4,4,4,4
6621179369,-16,20,-1,-17,-4,-2,8,-2
6621186110,8,44,18,21,10,5,-1,-1
6621186110,-14,-23,-37,-3,14,0,-4,-11
6621201717,3,51,-6,-43,-22,-5,-15,9
6621201717,52,64,-15,21,12,4,15,9
6621208613,-33,-23,-10,-16,-5,-1,-8,-12
6621208613,38,28,44,27,8,0,0,11
6621216121,-51,-5,-26,-31,-15,-7,-5,-14
6621216121,-17,14,10,-2,-1,-1,-5,1
6621231114,10,15,-15,-9,-16,-11,6,-2
6621231114,-6,-32,-14,-2,-2,-11,-6,-10
6621239284,23,-31,-5,5,-2,9,-34,6
6621239284,-27,-2,14,2,10,8,33,-3
6621246042,-13,-20,-9,5,-2,0,-25,7
6621246042,28,-5,8,-20,-12,0,2,5
6621261832,9,51,3,14,4,-13,-32,3
6621261832,-15,41,-1,0,-16,-26,-21,-12
6621268594,-18,73,-7,-1,1,15,18,-6
6621268594,9,112,20,10,0,2,5,-1
6621285688,-10,1,-8,5,25,19,55,6
6621285688,0,-49,-2,20,-3,-2,-1,-4
6621290987,3,-3,-24,-33,-5,-9,7,-2
6621290987,0,-2,4,-12,-12,-20,-4,-6
6621300016,-11,-86,12,9,38,2,5,-5
6621300016,5,-81,20,60,-17,9,6,1
6621306110,11,-33,-16,-45,6,-9,4,1
6621306110,-5,-83,-12,-2,-15,14,-4,1
6621322496,-10,-64,4,-58,19,-8,1,-5
6621322496,-2,-14,-19,23,12,-7,-6,-6
6621328501,-6,-32,10,-23,-33,-14,-18,-8
6621328501,7,-28,-7,31,-24,21,7,7
6621345039,-1,-3,-15,10,12,10,10,-2
6621345039,-1,-1,-12,-15,2,6,0,-3
6621351051,-13,-25,19,28,7,-5,-2,-6
6621351051,-17,-48,17,-4,-3,-13,7,0
6621359983,9,15,-22,55,-8,2,-8,-2
6621359983,-13,-10,25,-65,13,12,3,-3
6621366100,7,1,-17,12,7,0,-5,0
6621366100,1,38,-5,-6,7,2,3,5
6621382496,-7,9,9,-4,-18,-5,-5,-8
6621382496,3,-7,-11,-15,-1,-4,-23,0
6621388515,6,23,9,18,0,-11,-3,2
6621388515,-2,18,-14,-27,-3,4,7,-2
6621404984,-1,-27,-6,8,-13,0,9,3
6621404984,2,4,3,2,2,2,2,0
6621410972,11,22,2,7,5,4,-5,3
6621410972,-3,3,-3,9,6,7,-3,1
6621420013,-8,-7,6,-1,-1,-12,1,-1
6621420013,-8,7,3,3,-7,0,5,-2
6621426003,4,-9,2,0,3,4,-13,1
6621426003,11,11,0,-12,2,-11,-2,-1
6621442492,-3,14,9,8,-12,-10,3,0
6621442492,-3,-7,-2,-7,0,7,29,1
6621448502,-12,-7,-5,-5,-18,-17,-13,-9
6621448502,9,1,1,-2,9,16,-21,11
6621464973,10,-5,9,5,4,5,18,0
6621464973,-13,-28,-11,-3,-3,-13,-25,0
6621471054,-1,-10,-2,-2,-1,12,-2,-6
6621471054,-1,-5,8,0,0,-10,5,-2
6621479983,-4,5,-6,-5,-6,-3,-9,-1
6621479983,1,10,-2,-6,-4,-9,2,-7
6621486066,1,8,2,6,5,12,-6,11
6621486066,1,-4,2,-3,4,0,-1,-2
6621502456,-6,6,4,1,-6,7,-10,2
6621502456,6,10,-7,0,4,-1,11,-1
6621508590,-2,-5,6,-2,5,-6,3,-3
6621508590,-9,-3,-6,0,1,-3,13,-2
6621524949,12,15,-5,-4,-6,-5,-4,0
6621524949,3,1,3,1,-3,1,-12,3
6621531135,9,19,3,2,-1,0,3,-2
6621531135,-9,6,-5,0,7,1,0,1
6621539969,11,-5,13,2,-7,-3,-2,3
6621539969,-10,64,-1,-3,3,3,-2,-2
6621546037,-34,-26,-19,7,0,0,6,-10
6621546037,26,42,20,3,5,0,7,5
6621562467,7,35,3,0,-9,0,-1,-1
6621562467,7,-26,-22,-16,-1,-1,-2,-2
6621568655,16,-30,8,-7,-1,-2,5,9
6621568655,-9,-39,-18,-25,-13,-8,-8,-10
6621584941,0,-13,10,23,14,8,4,5
6621584941,-19,-32,-25,-17,-14,-8,-8,-17
6621591128,6,26,24,21,-2,-2,6,5
6621591128,10,9,12,10,14,4,3,4
6621599973,-37,-56,-49,-43,-7,-4,-6,-8
6621599973,6,-11,-2,-1,-7,-1,1,4
6621606084,8,-45,-4,-15,-8,-7,3,-2
6621606084,18,63,28,25,-6,-3,-5,-6
6621622433,8,26,4,-7,5,4,1,10
6621622433,-27,85,-1,20,14,9,-20,0
6621628581,14,27,-19,-16,-8,-3,-6,4
6621628581,-18,-17,-2,-20,1,2,-7,3
6621643594,5,24,30,54,17,11,15,-4
6621643594,3,9,5,1,-25,-17,-3,-4
6621651059,7,25,-13,-56,14,2,-3,3
6621651059,-35,-8,-19,27,-6,-12,-28,-11
6621659942,-6,18,-7,-5,7,10,27,1
6621659942,12,-2,24,32,-8,-5,-8,-4
6621666066,4,10,16,28,19,6,45,2
6621666066,7,7,-19,-46,-10,-3,-6,1
6621682490,0,-21,-11,-33,-14,-23,-28,-2
6621682490,1,-58,5,30,-2,2,12,-1
6621688582,-12,-41,14,57,-1,-4,-14,-6
6621688582,5,-21,-13,-14,-1,-1,8,2
6621703588,-8,-26,10,-35,14,0,-5,-8
6621703588,8,-30,-10,-41,4,-2,17,8
6621710983,-19,0,4,21,2,3,-7,-8
6621710983,4,-5,17,19,10,-1,6,-3
6621720099,1,-8,8,-23,-20,9,-7,-3
6621720099,-7,-17,-1,-11,14,-4,9,-1
6621726014,7,39,-7,17,-21,-9,-13,-1
6621726014,-3,10,-7,-38,-6,5,10,2
6621742458,0,-5,0,32,-12,-11,-1,-2
6621742458,1,8,-39,-43,8,-4,-12,0
6621748609,-8,2,9,12,-3,5,5,-4
6621748609,0,-3,-14,-9,-9,-2,-1,4
6621763460,4,10,3,7,-6,-7,-4,-3
6621763460,6,2,-12,-10,8,12,8,5
6621770974,-13,-6,1,-31,-12,-3,-6,-6
6621770974,12,18,12,35,12,-4,5,1
6621779978,-8,-12,-1,-4,-14,-18,-23,-5
6621779978,-3,2,24,12,3,7,9,-1
6621786099,-4,-1,-11,-22,-4,-3,0,-1
6621786099,2,-4,4,16,8,9,9,6
6621802501,-2,3,0,2,-5,2,-2,-3
6621802501,19,17,13,14,-4,-6,-9,2
6621808564,-13,-5,-7,-10,7,1,-1,1
6621808564,-4,-20,-8,9,-4,5,-11,-4
6621823589,4,13,-6,5,9,1,8,2
6621823589,-1,-10,-3,-6,-5,-12,9,-2
6621831121,7,6,0,-7,-3,10,21,0
6621831121,-6,-12,-2,-4,-7,-5,-52,-1
6621839932,7,4,-6,-2,-2,-5,-8,1
6621839932,-10,-16,4,2,-7,0,31,3
6621846148,4,-3,-3,6,5,-2,-16,-2
6621846148,-11,-13,0,-3,-4,5,14,-7
6621862519,-1,-23,-7,-2,-4,-1,3,0
6621862519,0,-9,4,7,2,-2,-7,-3
6621868554,11,-8,-10,-5,3,-7,-16,3
6621868554,-9,-4,-1,-4,3,2,17,-4
6621883651,-5,17,-2,-2,-3,4,-5,2
6621883651,-1,10,1,4,0,-3,-10,-5
6621890999,-12,0,5,-1,2,0,7,-3
6621890999,8,2,5,-2,-6,-7,-8,3
6621899941,25,18,0,2,-1,6,6,7
6621899941,-2,24,1,-8,-1,2,-9,4
6621913494,-39,-19,-38,13,0,-3,-1,-17
6621913494,2,12,-2,6,4,-4,3,-1
6621922472,-1,12,-3,-6,0,-5,-3,-5
6621922472,6,-2,8,-6,-2,11,2,6
6621928478,21,4,26,8,-1,-3,-3,5
6621928478,-7,-3,-27,-22,-4,-12,-19,-1
6621943367,-1,15,-8,3,6,10,4,-7
6621943367,1,-12,-5,-2,1,2,9,-1
6621950925,-10,-18,1,-10,-5,-1,-6,5
6621950925,-8,10,17,28,6,0,4,-6
6621966032,7,5,-6,-24,-6,-5,6,2
6621966032,-4,-2,-7,-1,-6,-1,-13,-5
6621973499,4,6,-4,-11,-9,-18,0,1
6621973499,17,14,27,20,2,10,14,0
6621982469,-10,7,-31,-18,-3,15,-6,-3
6621982469,6,9,11,-12,-13,-36,0,-5
6621988587,-7,36,-35,4,19,38,15,8
6621988587,-9,12,8,2,15,-6,-8,-7
6622003544,-27,21,1,10,-11,-4,-19,1
6622003544,6,39,10,12,9,2,33,2
6622010976,12,45,13,-2,-14,1,-4,-3
6622010976,-2,18,-16,-24,-5,-3,15,2
6622026081,-4,-24,13,37,-8,-6,6,-8
6622026081,3,-26,-20,11,15,7,-27,4
6622033566,15,-19,17,-3,-4,-4,15,4
6622033566,-13,-80,-7,-15,-4,3,-5,-9
6622049240,8,-52,16,2,-2,-16,-3,-1
6622049240,-8,-27,-10,-8,-10,3,-45,6
6622049936,-6,-33,4,14,6,-3,-4,-4
6622049936,8,-11,-2,23,-14,-4,-18,-1
6622063478,-16,-30,-5,-58,8,-2,3,-3
6622063478,3,5,5,12,-2,13,7,2
6622071018,1,-17,-7,-19,23,-13,-4,-6
6622071018,10,31,-17,16,-14,-3,4,2
6622086057,-9,1,8,45,-6,3,-7,-7
6622086057,7,3,24,31,40,13,8,3
6622093517,0,9,-10,-43,7,8,6,5
6622093517,-3,5,7,20,-17,-9,10,0
6622109208,9,16,-17,-25,-2,-7,1,2
6622109208,3,16,4,20,-15,-6,-4,-2
6622109990,-11,6,11,5,-15,-5,-4,-14
6622109990,-4,-4,-6,-52,23,1,14,4
6622123566,5,-11,12,45,6,8,4,5
6622123566,-6,-37,-25,-37,-3,13,8,2
6622131107,0,7,-11,3,-2,-8,-11,-4
6622131107,5,-1,-1,7,-3,2,10,-7
6622146152,0,16,-7,-16,-2,5,19,6
6622146152,-6,-4,3,8,10,1,12,-5
6622153615,1,0,-9,-13,-16,-5,-17,-1
6622153615,1,-5,-7,2,3,4,10,3
6622169217,9,9,1,17,6,-9,-4,3
6622169217,-5,4,-11,-10,-1,4,-2,-5
6622169949,3,6,-6,1,-17,-10,-14,-3
6622169949,12,14,19,8,6,2,-8,8
6622183565,-5,-3,3,-11,0,-3,-13,-3
6622183565,-8,-3,-8,-6,-17,-13,-5,-7
6622191004,-8,-8,14,13,6,0,-10,-3
6622191004,3,-1,-1,-5,1,-7,3,3
6622205998,-1,10,2,4,11,14,-11,-2
6622205998,-7,7,6,2,0,8,4,0
6622213556,5,-3,-2,-2,-3,5,1,5
6622213556,-8,-14,-3,-14,-4,-2,-9,-2
6622229264,-1,-3,-10,-6,-4,-2,-7,-5
6622229264,-4,-5,-1,-10,-8,-7,-10,-7
6622229940,-5,-27,-1,1,1,2,3,-2
6622229940,5,0,-1,-2,-7,-1,-4,-4
6622243580,-8,-24,0,-1,2,-2,-12,-1
6622243580,0,-22,-3,-2,-9,-9,-5,-1
6622251086,-16,-4,-2,2,2,0,11,-1
6622251086,2,-12,3,-1,-1,3,10,-5
6622266148,0,-15,-5,-4,-4,-11,2,0
6622266148,9,2,2,4,-1,10,-4,1
6622273554,5,17,-5,-1,-4,-4,1,4
6622273554,-10,-9,-12,-24,-3,-3,-9,-6
6622289201,-6,-6,4,12,-1,-2,9,-1
6622289201,-7,7,-3,-13,-6,-5,-9,-1
6622290004,4,-5,-8,18,6,3,1,-2
6622290004,2,-3,-1,0,-5,2,-1,-1
6622303568,3,15,12,7,-3,-9,-5,-5
6622303568,4,16,-19,-12,1,-4,4,6
6622311041,-3,-16,3,-8,-7,3,-14,-4
6622311041,-1,49,29,17,-9,-13,-4,5
6622326082,-10,-22,-47,-41,-2,-3,-3,-6
6622326082,4,-16,18,22,5,-1,8,-5
6622333553,42,47,-12,-22,5,6,-5,9
6622333553,-53,-61,-16,13,0,3,4,-9
6622349139,-18,25,20,2,-9,-5,-2,-8
6622349139,-7,44,28,1,-9,-9,1,-3
6622350058,4,-10,-31,-2,11,-1,-12,-4
6622350058,12,3,-13,-34,-11,-2,8,6
6622363514,5,-33,-1,2,5,4,4,1
6622363514,-5,-35,4,8,1,-3,0,-5
6622371077,4,59,44,33,-6,-3,2,1
6622371077,4,9,-25,-31,-4,1,-5,5
6622386062,5,10,-18,3,6,-4,-10,-9
6622386062,21,-9,-8,-3,0,9,35,11
6622393532,-2,-13,9,17,5,0,32,0
6622393532,-37,33,12,6,0,2,-23,-10
6622409208,-2,11,-7,-38,-15,-13,-5,0
6622409208,8,23,5,-15,-11,-6,-8,-5
6622409921,-3,2,-20,1,13,-1,-4,11
6622409921,27,27,6,23,8,10,6,-5
6622423558,13,61,26,43,-1,4,5,5
6622423558,-22,15,-16,-21,-5,-15,-16,-12
6622431060,-8,-37,-20,-33,-16,-6,7,0
6622431060,0,-20,0,2,-1,-15,0,-3
6622446042,3,-39,-2,2,11,19,-8,8
6622446042,8,7,6,13,0,9,-4,3
6622453521,-12,-18,14,-18,-6,-3,-6,-1
6622453521,10,-24,-14,2,23,-14,-14,1
6622469162,-10,-3,13,59,-8,7,9,-1
6622469162,-9,-26,-6,-13,20,10,-4,-3
6622469941,7,-15,-3,-54,-8,6,16,-3
6622469941,-23,-13,11,28,25,8,4,-3
6622483589,2,-13,-16,-51,-47,-14,-2,-4
6622483589,-3,-14,-6,42,12,-3,-13,-1
6622491085,-5,-9,9,31,-2,-2,-6,-3
6622491085,14,8,-16,-30,5,4,12,2
6622506064,-7,-18,9,7,17,0,13,-1
6622506064,-1,-8,10,12,-2,-3,3,1
6622513481,-9,-1,-14,22,-9,0,-1,-3
6622513481,6,-17,-12,-41,-12,0,-1,-2
6622529107,-11,-3,-4,0,5,-3,-11,-6
6622529107,-2,14,-4,-31,-23,-8,-10,-5
6622530059,-7,-14,13,39,18,4,-19,-7
6622530059,6,21,12,28,-11,-2,5,7
6622543616,1,6,-6,-34,-13,-11,-2,-6
6622543616,-5,-13,-6,4,11,9,1,3
6622551089,-3,10,1,4,-2,-6,-5,-2
6622551089,11,6,22,12,-12,5,11,2
6622566063,-2,-9,-11,-6,15,-9,-10,-3
6622566063,-2,-7,-12,-6,-8,-17,-8,-3
6622573582,-12,-9,-13,-19,3,19,1,0
6622573582,9,-9,-6,-3,-9,-1,-1,5
6622589258,7,17,20,16,11,7,11,12
6622589258,-3,-7,4,8,-7,-7,-9,-6
6622589942,-5,-13,-8,-16,-2,-6,3,-2
6622589942,3,-11,-9,5,-2,1,1,-1
6622612222,0,-13,-10,-8,1,2,-13,3
6622612222,1,1,0,0,-1,-2,-2,1
6622612983,1,6,4,-5,-7,-8,-5,-1
6622612983,-8,1,4,4,-1,8,13,-1
6622626084,-1,9,-1,-3,1,7,4,-1
6622626084,-7,-10,-5,-9,-7,-11,-13,-3
6622633634,7,-5,9,15,9,-1,7,6
6622633634,2,-2,1,-6,3,5,-15,-11
6622649182,10,-1,-5,-2,-3,9,4,11
6622649182,-25,-23,-5,-10,-10,-6,-1,-7
6622650002,0,2,-1,-7,-4,-11,-23,-7
6622650002,6,-1,0,4,0,-3,19,6
6622663561,-4,-4,-1,-3,-1,-15,12,1
6622663561,18,16,-3,4,7,31,0,2
6622670961,-3,15,5,1,0,-1,16,-9
6622670961,4,3,2,-6,-3,1,-12,10
6622686064,10,-3,3,1,-3,-16,-12,-5
6622686064,-21,6,-6,-8,2,-1,1,-2
6622693563,-9,-14,4,2,-8,2,7,-3
6622693563,0,13,0,9,0,-11,-17,-5
6622709193,10,4,-6,-9,6,13,19,-1
6622709193,27,18,3,10,-3,-6,6,7
6622709990,-20,-17,-8,-9,3,-5,-15,-3
6622709990,-12,18,24,-7,-12,-6,-7,-7
6622723494,8,-14,-36,-17,4,1,-5,2
6622723494,11,53,24,54,18,5,5,0
6622731030,-21,-61,-3,-4,-16,-9,-4,-9
6622731030,10,28,-31,-31,4,2,-4,1
6622746071,-45,-53,1,2,-10,-3,3,-14
6622746071,17,5,7,2,-10,-6,0,1
6622753528,23,49,-22,-11,4,5,-2,7
6622753528,-18,72,39,33,4,4,5,5
6622769176,-37,-77,-29,1,-3,-3,-15,-17
6622769176,-6,-15,-19,-26,2,-2,4,-5
6622769991,23,68,31,9,-8,-9,13,10
6622769991,-1,-59,-16,-14,-14,-4,-21,-11
6622783509,26,64,10,3,5,13,35,18
6622783509,-50,-28,2,13,9,-8,-4,-9
6622791058,14,26,-5,-18,-15,6,11,0
6622791058,-11,18,-11,10,12,-1,-17,-1
6622806053,2,-17,15,-6,-18,-13,-17,-7
6622806053,34,-12,9,-4,11,8,5,7
6622813443,-35,-56,-27,-26,2,5,-2,-4
6622813443,-5,-22,-8,-10,-6,-1,16,-1
6622828517,5,103,16,16,-2,-3,-14,-1
6622828517,-7,10,10,-6,-12,-11,-2,-2
6622836749,10,-29,18,42,5,2,-2,2
6622836749,2,-15,-8,-23,3,1,-27,4
6622843537,4,-4,-1,-11,-3,-6,-7,1
6622843537,-10,9,1,-2,2,6,-3,-5
6622851059,-1,-22,5,22,8,-1,2,0
6622851059,-10,-41,-19,-27,-6,-7,-5,-10
6622865966,19,0,11,3,-7,-3,3,5
6622865966,-16,-25,-17,-2,-2,3,-2,3
6622873459,-1,9,0,3,6,0,1,-2
6622873459,9,-10,15,30,-2,5,7,1
6622888475,-4,-8,5,1,14,6,4,1
6622888475,-2,-12,-12,-26,-17,-7,3,-4
6622896739,7,18,2,11,14,-6,-8,0
6622896739,5,1,-2,-1,-36,-19,-9,-3
6622903567,-2,-8,-9,-6,24,16,-2,-3
6622903567,2,1,4,25,12,0,0,-2
6622911052,-6,22,-16,-61,-4,-13,-7,-3
6622911052,6,-9,-3,15,-3,-21,-2,-9
6622925955,-4,7,1,-42,-11,4,1,1
6622925955,-1,13,11,6,8,10,0,-2
6622933346,11,9,-6,11,21,3,2,12
6622933346,-10,-17,7,-5,3,-3,4,-5
6622948503,6,4,-12,-5,-5,-1,4,5
6622948503,1,3,-14,40,0,-11,0,0
6622956633,0,16,14,-5,-27,1,-4,-5
6622956633,0,12,-9,-17,24,13,16,6
6622971734,6,14,10,42,16,10,-5,2
6622971734,-1,-13,-37,-94,-15,-4,-1,2
6622972394,-4,-1,-8,12,-10,-2,8,-2
6622972394,0,0,-4,-9,-9,1,-15,-5
6622986032,6,26,12,29,7,-8,0,0
6622986032,-4,-12,6,9,7,7,-2,-6
6622993492,7,1,9,-3,-3,4,-1,3
6622993492,4,-2,-9,-7,-6,-1,9,-1
6623008605,-12,0,1,2,-14,-10,-3,-1
6623008605,-2,-8,-3,27,1,-1,-7,2
6623016773,-6,-8,-18,-22,-3,-3,-4,-9
6623016773,4,19,6,-3,-8,-16,-5,5
6623031709,-4,-14,12,28,-1,9,-1,-6
6623031709,12,4,-25,-39,3,8,6,6
6623032449,-12,-12,-2,0,-7,-7,-9,-8
6623032449,2,-2,11,17,14,9,10,1
6623045965,8,-1,-6,0,-10,-10,-5,0
6623045965,-3,9,8,-4,-8,-12,-8,-3
6623053452,-7,-16,-2,20,11,11,15,0
6623053452,-8,-8,-2,1,1,2,4,-3
6623068510,0,-10,2,0,7,4,-33,4
6623068510,-1,-1,-1,-9,-6,-1,-2,-1
6623076738,1,1,4,-8,-8,-12,-15,-4
6623076738,-13,-26,7,8,3,6,6,-1
6623091586,-3,-16,-4,-8,1,-1,12,-5
6623091586,-6,-7,-2,-4,-8,-9,-9,-3
6623092381,3,-8,4,1,-6,-6,-1,2
6623092381,3,-23,-5,-1,0,9,13,-7
6623106051,3,4,-9,-10,-1,1,9,5
6623106051,1,-3,11,3,-4,-1,-4,-2
6623113509,-6,0,9,6,1,-8,7,1
6623113509,-4,10,-4,-2,1,-4,-40,0
6623128557,-5,-11,-12,-15,-8,0,19,-5
6623128557,0,-13,3,7,-1,1,-16,2
6623136741,11,1,-3,-8,1,-2,-4,-3
6623136741,-5,3,1,16,4,3,25,8
6623151684,-18,-10,-2,0,-5,-6,-4,-10
6623151684,-13,-5,5,1,-5,-5,-7,0
6623152373,-4,20,-9,-16,-4,1,0,-4
6623152373,4,15,16,17,1,1,3,0
6623166001,4,2,-2,-9,6,1,3,-2
6623166001,6,23,-8,-16,-9,-6,16,-3
6623173570,19,8,1,7,2,6,-13,4
6623173570,-20,1,-6,-6,-2,-2,1,-8
6623188531,4,10,5,1,-7,-6,0,9
6623188531,24,16,7,8,7,9,-14,-1
6623196733,-15,-27,-6,-4,-4,0,2,1
6623196733,0,-21,4,8,2,-5,-12,-7
6623211677,-13,44,-14,-24,-3,-5,7,-11
6623211677,-2,13,1,-11,-7,6,31,9
6623212405,-8,-17,8,16,5,1,-4,7
6623212405,21,8,-7,8,-9,-10,-11,-1
6623226051,-13,-8,-12,-10,4,-2,-18,-12
6623226051,4,-5,-5,-16,-3,-4,4,-3
6623233512,9,41,13,12,-2,4,9,4
6623233512,-1,5,-8,3,8,5,5,1
6623248547,-7,-5,-8,6,1,4,10,3
6623248547,1,27,24,21,-4,1,-10,0
6623256717,4,5,-6,0,-4,-1,5,-4
6623256717,-5,47,-11,-56,-1,-6,-1,1
6623271712,8,20,4,-2,-14,-1,-3,4
6623271712,-14,3,3,47,13,0,-2,-4
6623272397,5,8,2,-8,-10,0,0,1
6623272397,8,-5,-8,-14,14,9,28,7
6623286061,7,50,-13,-12,-3,-4,-19,-1
6623286061,20,10,6,-12,-9,-5,-5,1
6623293522,-23,-11,7,17,7,-1,-32,-5
6623293522,-11,-21,-4,-1,-9,-1,3,-5
6623308550,-8,-8,9,10,10,1,4,0
6623308550,4,-6,-9,1,-3,-4,-3,2
6623316740,3,-32,-12,-25,-7,-8,-6,-8
6623316740,-18,-23,9,9,-10,-6,-8,-4
6623331548,9,-15,14,13,-4,3,-1,-1
6623331548,9,-7,-3,-1,4,0,3,3
6623332312,-32,-21,-7,-21,6,1,10,-2
6623332312,2,-11,-4,-26,-8,-5,-15,-1
6623354176,-11,-17,0,-24,-11,-5,20,1
6623354176,8,-15,-9,-1,4,7,3,-4
6623355013,-4,-25,-1,18,12,6,2,0
6623355013,6,-6,-3,2,-6,3,1,-1
6623368530,2,-4,13,14,2,-3,-4,3
6623368530,-7,-34,-9,-27,-23,-5,-2,-5
6623376673,8,-1,-3,13,15,9,19,-1
6623376673,8,18,5,1,-7,-8,-30,-7
6623391559,-5,-20,2,4,-11,-5,-12,-6
6623391559,-17,-12,-8,-21,-14,0,18,-1
6623392464,13,27,16,23,7,10,23,1
6623392464,-2,3,-24,-18,-8,0,-13,6
6623406039,4,-8,0,5,-7,-15,-13,-10
6623406039,3,9,-4,-3,12,-5,-3,1
6623413458,-10,7,11,8,-25,-3,-16,-3
6623413458,1,-10,4,7,15,-2,12,-4
6623428507,2,-6,5,9,15,1,-6,1
6623428507,3,10,5,33,-13,-10,-11,-1
6623436723,-11,-1,1,-13,15,7,7,-2
6623436723,-5,-10,4,1,13,4,3,-1
6623451625,-2,-19,-1,36,2,3,-5,-1
6623451625,-2,1,-19,-52,-8,-1,2,1
6623452463,18,28,3,17,1,-8,-6,4
6623452463,-20,-34,12,-10,-23,2,0,-9
6623466009,1,-1,-4,2,7,-7,10,2
6623466009,-20,-17,1,16,13,13,-2,-5
6623473471,-12,-19,-12,-33,-20,-11,-7,-4
6623473471,12,27,-1,16,6,0,6,4
6623488488,9,-2,9,-2,-3,1,-5,-2
6623488488,-11,-4,-26,-20,3,-1,-1,-3
6623496718,7,13,-12,-23,-5,-9,-7,-1
6623496718,11,14,-2,16,2,3,8,4
6623511546,0,-3,1,2,2,-4,-21,-1
6623511546,-13,0,12,8,3,6,19,-8
6623512418,1,-4,-3,0,-3,-2,5,6
6623512418,-1,0,3,8,2,-6,-3,-2
6623526019,2,8,-5,-18,-5,2,14,1
6623526019,-11,-1,2,3,7,-4,-7,-5
6623533532,-1,9,4,2,4,-17,8,-3
6623533532,-2,-19,5,2,-3,25,2,2
6623548393,0,-20,-3,-11,-5,-2,1,-1
6623548393,2,-19,3,-7,-2,1,-8,1
6623556749,2,-3,-11,4,2,0,7,0
6623556749,3,-2,-7,5,0,-10,-16,1
6623571630,-5,-21,-10,-9,-1,0,-4,-3
6623571630,-15,2,-1,0,-2,-4,-28,-3
6623572367,5,-1,9,6,1,0,-6,2
6623572367,1,-2,-3,-6,-5,-15,6,-4
6623585984,6,12,2,-4,5,14,0,2
6623585984,8,-5,1,10,4,0,6,2
6623593510,4,-10,-6,-5,-6,3,-3,-2
6623593510,-17,-13,0,-3,-1,-3,1,-2
6623608580,-1,3,-10,-9,-4,-6,-18,-3
6623608580,0,0,9,13,-3,-3,8,-3
6623616722,3,-1,3,2,0,5,-28,1
6623616722,-16,17,14,5,-1,-2,9,-4
6623631690,7,2,-17,-33,-7,-3,1,1
6623631690,5,0,-1,6,11,3,2,1
6623632375,12,16,-13,-18,-11,-3,-8,-9
6623632375,-3,0,-6,17,3,-4,-5,6
6623646059,-21,-5,-25,-16,-12,-2,6,-4
6623646059,1,14,18,3,3,1,-2,-1
6623653523,12,31,10,18,10,7,8,1
6623653523,5,-27,7,-3,5,4,8,9
6623668472,-16,-17,-13,-9,-7,-8,0,-11
6623668472,14,9,22,42,-2,-7,-14,9
6623676656,-4,5,1,-11,8,3,-1,-7
6623676656,15,1,-17,-25,-1,6,-1,4
6623691689,13,61,35,24,4,4,4,12
6623691689,-15,-5,-22,-29,-4,-8,-9,-15
6623692394,-13,-61,-16,6,-8,-6,0,2
6623692394,-12,-46,-11,-4,2,3,-8,-12
6623706059,-3,-5,-11,2,4,0,2,0
6623706059,18,27,15,5,-6,-5,-17,9
6623713530,2,64,22,4,-9,-3,2,-1
6623713530,-6,-27,-30,-11,-8,-10,10,-10
6623728479,34,50,15,28,17,9,9,19
6623728479,-16,-53,-13,-17,18,11,5,-11
6623736672,-4,-5,-4,-14,-1,-2,-10,6
6623736672,-25,-18,12,-8,-10,-6,-12,0
6623751073,9,18,-1,-15,-1,-3,-2,-9
6623751073,6,20,-4,14,-12,-5,16,5
6623759193,2,33,-7,-12,2,3,-12,-6
6623759193,21,71,9,15,-4,-4,-1,-2
6623765983,-6,-95,-14,-6,3,0,6,3
6623765983,10,-24,-2,3,-11,-4,-3,-1
6623774198,-18,-7,-10,-16,-5,-5,7,-5
6623774198,12,19,8,10,-2,4,1,1
6623788498,1,8,18,21,15,2,1,-3
6623788498,-17,-36,-29,-42,-2,0,-4,0
6623796674,-4,-2,6,39,-8,-8,-11,-4
6623796674,6,3,-4,-22,15,-5,12,-1
6623811057,-7,-33,13,16,-19,9,-9,-1
6623811057,-3,-8,-8,-36,7,-4,1,0
6623819182,-9,-40,-17,-7,-14,3,-5,-5
6623819182,9,-14,-5,19,5,-8,-10,-2
6623825876,1,-11,1,14,0,8,-2,-1
6623825876,-2,13,1,-16,6,-12,5,-1
6623834199,-13,-7,5,22,-19,0,9,-1
6623834199,4,3,2,22,1,9,14,4
6623848590,-10,-3,-3,-13,-1,-10,-20,-6
6623848590,8,12,4,5,16,17,3,-2
6623856687,19,-1,-4,-28,9,-4,6,3
6623856687,-4,8,0,-20,-1,-4,0,4
6623871044,-10,3,-6,6,-12,-11,-6,-5
6623871044,-8,5,0,1,-22,-1,10,-3
6623879164,-4,-7,3,11,3,-7,6,2
6623879164,8,22,8,-6,-5,13,-2,3
6623886080,-6,0,-14,-24,14,-3,2,-6
6623886080,6,25,8,21,-10,-2,1,3
6623902366,14,12,2,40,29,12,11,7
6623902366,-11,-4,-23,-56,-13,0,-2,-4
6623908487,15,9,-15,-30,-18,-12,-1,0
6623908487,-24,1,16,11,2,2,1,-1
6623917316,12,8,19,28,7,9,-3,1
6623917316,0,2,-7,-20,-5,-7,-5,-2
6623931005,0,5,23,27,0,-2,9,3
6623931005,7,2,-20,-13,-12,-12,-5,-3
6623940058,-8,-9,0,-5,9,5,3,1
6623940058,-5,-2,-2,39,16,0,-4,-4
6623953560,0,8,11,-1,-8,0,3,1
6623953560,0,-1,2,-4,-3,1,-2,-2
6623962399,-3,-2,9,-25,-22,-12,-6,-1
6623962399,-5,-25,0,9,13,11,4,-1
6623968399,-3,-4,-4,33,4,4,3,2
6623968399,-2,-8,-7,-11,2,2,10,0
6623977371,-1,-2,-1,-23,-1,2,3,-2
6623977371,11,12,15,27,-8,-4,-15,-2
6623991053,-33,-25,-19,-30,-8,-11,-9,-10
6623991053,16,7,8,25,-2,-1,-4,1
6623999903,-6,-11,-11,-29,-8,-2,-3,0
6623999903,3,2,-5,15,5,-8,0,-1
6624013428,-1,-4,-3,3,5,3,4,1
6624013428,-6,11,0,-10,-3,-3,-5,-5
6624022400,-1,-23,-11,-4,-1,-5,-10,-7
6624022400,-4,-1,9,-6,-13,-14,-7,-3
6624028507,1,-20,-14,-9,6,17,19,9
6624028507,0,-15,-3,4,-1,0,3,-3
6624037374,-5,-14,-6,1,-1,-3,-5,-3
6624037374,-4,1,-1,-5,-5,-6,3,-2
6624051003,-6,-2,-4,-11,-1,-11,-13,-6
6624051003,7,1,3,13,7,7,8,2
6624059917,-6,7,0,-4,-6,-7,-6,-1
6624059917,0,3,-8,-13,-8,-4,3,-6
6624073460,10,-5,11,-9,0,2,11,3
6624073460,-2,-3,-5,21,5,1,-9,1
6624082376,-7,-14,-12,-16,0,-1,-1,-5
6624082376,-1,-2,1,-1,-4,0,5,0
6624088512,0,17,10,7,-2,-3,-3,-4
6624088512,0,5,6,-9,-5,-5,-7,0
6624097386,2,3,-18,11,-2,-3,2,-1
6624097386,13,4,-2,12,4,4,-14,4
6624110984,-6,5,-10,-22,-8,-2,0,-4
6624110984,-20,7,-2,-1,3,1,-5,-8
6624119915,8,0,-4,-16,-1,-2,-2,2
6624119915,-13,16,-1,1,0,1,0,-4
6624133480,4,12,13,15,3,-3,0,3
6624133480,10,-5,1,-16,-8,-2,5,5
6624142364,10,11,0,2,3,3,-8,-4
6624142364,-17,2,4,17,6,2,3,2
6624148481,-3,23,13,16,2,4,6,-1
6624148481,-2,-67,-21,-23,-2,-4,-4,-10
6624157388,-4,43,-1,-3,0,-5,-38,2
6624157388,12,-1,8,-4,-2,2,2,-1
6624170990,10,-2,0,-19,-11,-9,-10,2
6624170990,-4,21,3,37,15,8,6,-2
6624179914,-23,-15,-1,-16,-4,0,8,-4
6624179914,-3,4,-3,-3,2,3,-15,-1
6624194656,-10,10,-1,17,3,-3,-5,-4
6624194656,18,18,2,-19,-21,-8,-2,2
6624200993,8,4,-9,10,16,5,12,2
6624200993,-11,25,21,31,2,-2,-4,-5
6624208374,2,10,-26,-27,-4,0,0,-3
6624208374,5,45,22,36,2,6,-3,2
6624217359,-2,19,4,0,-5,-4,3,-3
6624217359,-3,-15,-39,31,16,1,0,3
6624231065,0,14,2,1,-5,-2,-3,-1
6624231065,-8,18,12,-21,2,-3,-5,-3
6624239896,-7,-1,22,26,-6,-4,3,-1
6624239896,7,-21,4,-31,-20,-3,10,0
6624254176,12,-31,-7,2,14,5,3,3
6624254176,-16,-32,0,13,-1,-6,4,-7
6624260944,5,-40,0,6,4,5,-37,9
6624260944,-10,-31,2,-14,-18,-7,-5,-7
6624277241,-16,-23,-9,-5,11,-2,-2,-6
6624277241,3,-34,-7,-10,-2,0,-13,3
6624278848,7,-18,0,-11,-4,-3,19,-5
6624278848,5,1,4,-8,-11,2,5,3
6624290981,21,-1,0,11,10,7,-5,0
6624290981,-21,-25,-11,-8,7,-4,14,3
6624299915,-7,0,-2,8,-1,9,-4,-1
6624299915,-1,11,13,22,12,-8,-4,-1
6624314147,-4,-22,-10,-49,-22,0,6,-2
6624314147,12,18,5,12,-12,-8,-12,-7
6624320985,-5,-1,2,-2,5,-2,23,0
6624320985,-8,-11,-9,-7,5,10,18,6
6624328455,-6,2,11,23,-13,-7,-14,-1
6624328455,3,13,-26,-35,13,3,9,-1
6624337384,5,8,13,23,-12,-13,0,-3
6624337384,1,2,-4,-33,9,1,-6,-7
6624350974,-10,2,-3,1,-1,1,20,2
6624350974,6,7,5,10,-12,-5,-11,2
6624359928,0,-2,3,10,14,4,8,-2
6624359928,-8,-2,-11,-37,0,11,2,2
6624374859,5,17,8,1,3,-1,-2,2
6624374859,-9,-20,5,-3,-11,0,6,2
6624376345,5,6,-18,-4,4,4,-2,-4
6624376345,20,11,-2,17,-1,-5,6,6
6624388497,-5,-4,1,12,1,3,-10,-6
6624388497,5,4,-5,-6,4,2,-3,8
6624397389,-14,-10,-6,2,-3,-6,-1,-6
6624397389,3,4,13,6,6,5,7,1
6624411034,1,13,3,18,10,2,10,-1
6624411034,-10,-5,-3,-4,-20,-23,-21,-10
6624419933,-2,0,3,-19,-5,-1,0,-1
6624419933,-5,7,-2,-9,-6,-9,-7,-4
6624434786,8,5,-4,0,1,-2,-19,2
6624434786,-14,-1,5,-3,-1,2,4,-6
6624436338,2,-4,-9,-7,-1,5,-5,-5
6624436338,10,4,-3,-9,-9,-1,-2,3
6624448377,-9,-15,-5,5,14,3,-2,-1
6624448377,3,4,2,-3,1,8,9,3
6624457316,-2,9,21,-9,-15,-10,-1,-2
6624457316,-5,-7,-9,17,12,-2,-11,-3
6624470993,-2,-7,-7,-9,-11,2,6,-1
6624470993,9,11,0,-5,8,4,8,7
6624479910,4,1,9,-3,1,1,1,-2
6624479910,-4,-13,6,5,-8,-4,-9,-9
6624494839,-9,-2,-4,-7,-9,-7,1,1
6624494839,-13,-2,-8,3,1,2,1,-3
6624496337,2,-21,-1,-3,-5,-4,-7,1
6624496337,4,-16,0,2,2,1,5,0
6624508486,-1,-1,7,-4,0,-1,0,-1
6624508486,10,-17,-4,2,-4,-2,-5,-1
6624517349,6,-17,-11,-6,0,1,2,3
6624517349,-16,-2,-3,3,-7,-6,-6,-3
6624530958,4,-7,-12,-13,-7,-2,0,-4
6624530958,4,-2,2,6,4,1,-11,2
6624539915,4,11,-6,-5,0,0,1,-1
6624539915,-3,2,-3,-8,-7,-1,4,0
6624554818,-11,-13,3,2,-2,-3,1,-4
6624554818,3,-10,-6,1,-1,-8,-27,0
6624556319,4,6,-4,-8,3,14,9,3
6624556319,-1,2,3,1,-6,-3,-3,1
6624568520,4,-2,-4,-1,-1,0,-2,-4
6624568520,-1,13,-1,-9,3,4,4,-1
6624577363,-12,3,4,17,-1,-8,-4,0
6624577363,-2,-2,-5,-13,-7,-2,-5,-1
6624590979,2,16,5,17,5,-1,-3,-2
6624590979,11,22,1,-2,-4,-3,6,2
6624599860,2,6,-5,3,1,-2,-2,0
6624599860,-3,6,-5,-2,10,5,6,-1
6624614858,-19,8,9,-12,-9,-10,-6,-2
6624614858,0,3,-7,3,4,11,1,-3
6624616348,14,12,10,-1,1,3,13,5
6624616348,4,-1,-14,-27,-8,-4,-9,0
6624628488,-21,-21,-13,2,-4,-7,-3,-1
6624628488,-2,11,-1,21,7,-2,-1,-2
6624637364,10,-12,7,-10,-7,-6,-6,-4
6624637364,-12,29,13,-8,5,7,6,-1
6624650963,9,-2,-6,-5,-7,2,1,4
6624650963,-2,47,29,-25,-9,-4,2,-2
6624659939,-6,-1,-27,0,4,4,7,2
6624659939,12,-18,8,11,-2,-3,-7,-2
6624674846,2,10,-10,-21,-8,-9,-8,-9
6624674846,-12,0,2,6,0,3,2,0
6624676329,25,57,13,0,-1,3,0,5
6624676329,-32,-43,-20,-13,5,-3,5,2
6624688390,13,70,23,19,2,7,-2,-3
6624688390,-2,19,-23,-11,-3,-8,-6,-10
6624697341,0,7,-9,-10,-11,-7,-5,2
6624697341,4,-28,-1,1,-9,-5,21,5
6624711004,6,-3,9,4,5,4,-19,5
6624711004,-21,12,-1,8,3,2,10,-4
6624719828,-2,-13,-11,2,1,-4,2,-6
6624719828,12,50,20,-4,-14,-2,-1,2
6624734025,5,-75,-18,-6,1,-3,8,1
6624734025,10,15,19,13,6,1,-4,6
6624740983,-34,-75,-29,-33,-2,-2,-7,-7
6624740983,25,10,8,10,-13,-6,-10,-2
6624748420,-10,-15,-6,15,23,14,14,0
6624748420,6,-59,-13,1,-1,2,-6,-2
6624757306,-19,-20,7,-5,-3,-10,-11,1
6624757306,2,3,-7,1,3,5,0,-4
6624770920,-2,-1,1,5,-3,-4,-9,-2
6624770920,6,-50,-17,1,-5,-3,3,3
6624779934,-10,33,25,9,-6,0,9,-4
6624779934,4,-13,-8,20,21,-3,-28,-3
6624794184,-5,-3,12,-16,13,13,-5,6
6624794184,5,-4,3,14,-9,-5,8,1
6624801003,5,7,-6,-10,-7,-14,-7,-5
6624801003,-15,-8,0,-7,0,-15,-12,-12
6624808477,-10,-4,2,33,-30,-8,0,-2
6624808477,0,3,-14,-60,19,1,-9,-2
6624817311,-18,-20,-13,-14,-18,-6,-3,-7
6624817311,-9,-15,-4,-14,-6,4,8,-2
6624830981,10,17,-18,6,7,-12,0,-2
6624830981,-14,-6,10,-13,-22,-11,-1,-4
6624839915,3,-9,0,23,13,9,3,-1
6624839915,17,20,-11,1,1,3,9,7
6624854136,-11,4,-5,-42,-5,-8,-4,-8
6624854136,-5,-6,10,36,8,14,3,-4
6624860988,6,14,-11,-18,-1,-2,-1,5
6624860988,8,17,-11,34,0,0,10,5
6624877301,9,3,-3,-2,10,4,3,4
6624877301,-12,-5,-9,9,-3,-2,1,-6
6624878832,2,17,2,-6,6,4,-4,-3
6624878832,-2,-4,4,7,1,0,-13,0
6624890988,2,-4,9,8,-4,-6,5,-2
6624890988,6,2,-4,-9,2,-3,2,1
6624899911,-9,-21,1,26,2,5,-36,3
6624899911,-7,-11,-1,-11,8,4,9,-1
6624914158,0,-9,-4,-11,-7,0,-1,1
6624914158,13,6,0,3,-1,-3,-2,6
6624920770,-4,-3,8,0,-2,-5,-10,-6
6624920770,-2,9,2,-3,-6,0,4,1
6624937287,4,-2,-16,-16,-3,-1,0,-1
6624937287,0,1,-3,12,8,3,5,2
6624938761,5,5,3,4,1,-1,10,0
6624938761,11,4,4,-7,0,-3,-2,5
6624950958,-17,-3,-3,4,-7,-1,-1,-2
6624950958,-3,4,9,-2,-3,-1,0,-2
6624959920,-3,-13,-12,-8,1,4,5,-4
6624959920,-7,-15,-4,-7,-6,-8,-6,-6
6624974125,3,-12,-4,-4,-2,-1,-9,-3
6624974125,-14,-12,-8,-7,-7,-2,-3,-4
6624980957,6,-4,1,4,4,-2,5,4
6624980957,-4,-13,-3,-8,-7,-3,-1,-6
6624997327,3,1,4,2,2,4,7,-3
6624997327,-3,-6,-1,-6,-5,-3,1,1
6624998831,2,-3,6,6,-2,0,8,0
6624998831,-28,-15,-8,-7,-4,-7,-6,-9
6625010863,6,6,3,-1,0,0,4,1
6625010863,3,-3,-2,2,-1,-3,-6,-3
6625019914,-5,-3,7,11,-8,-10,-1,-4
6625019914,6,12,-11,-8,9,9,-11,4
6625034133,-10,-1,9,13,2,-1,5,-3
6625034133,2,-14,-12,-19,-2,2,-3,0
6625040935,5,9,-5,4,2,1,2,1
6625040935,-4,4,9,7,-1,-2,-1,-5
6625057255,-2,-2,4,-5,-7,-2,-4,0
6625057255,11,8,9,11,5,2,0,7
6625058782,1,7,-2,-3,-1,0,0,1
6625058782,5,1,10,15,-1,1,-5,0
6625070943,7,2,-17,-29,2,-2,9,1
6625070943,1,3,1,8,-3,-4,3,-9
6625079778,4,7,2,-13,-3,3,-11,7
6625079778,-5,2,1,14,0,-2,-5,-1
6625094153,5,14,10,12,-5,0,9,2
6625094153,8,27,4,0,4,0,0,-1
6625100961,-26,-18,-7,-19,-3,-8,-4,-6
6625100961,2,-17,-9,-18,0,5,6,3
6625117318,-7,-6,-9,6,5,2,-10,-2
6625117318,9,-5,10,-10,-4,0,-8,0
6625118823,18,47,-1,11,-1,-2,6,2
6625118823,-1,13,3,2,-2,-7,-2,4
6625130933,-7,-14,-2,0,2,-1,-3,-4
6625130933,-6,-23,-1,13,-1,-1,-4,1
6625139938,-3,12,6,11,0,-2,-9,-9
6625139938,-17,-27,-14,-30,-8,-1,11,-5
6625154132,26,16,13,-1,-6,-4,-14,7
6625154132,-1,40,-16,-20,0,-1,11,-2
6625160884,-11,-5,1,11,12,8,-5,0
6625160884,13,83,7,4,-10,-3,-4,0
6625177229,1,14,11,4,1,-5,-4,0
6625177229,-12,-22,8,18,2,1,1,-2
6625178793,-1,-43,-20,-15,2,7,11,5
6625178793,-3,7,-1,4,7,3,-5,-4
6625190969,-5,-33,2,-10,5,3,5,3
6625190969,26,22,23,4,-7,-5,-7,7
6625199791,-10,20,9,-3,-8,-3,1,2
6625199791,3,-61,-2,21,-3,-9,-10,-8
6625214024,-32,-36,-14,-3,1,1,6,-7
6625214024,22,-13,-8,1,7,6,-7,6
6625220986,-5,26,20,9,10,3,4,3
6625220986,-26,-67,-24,-12,-13,-10,-18,-11
6625237346,9,13,-1,-8,-3,6,36,1
6625237346,5,-16,-1,5,-2,-15,1,0
6625238825,-7,-13,-15,-17,0,10,14,-3
6625238825,5,5,14,21,6,11,2,2
6625259788,-4,18,-8,-2,2,-1,-16,-5
6625259788,-19,-12,-4,11,-5,-1,1,-2
6625261294,10,-24,-9,-25,-7,-15,-6,-5
6625261294,8,8,1,-20,-11,-3,1,2
6625274142,-14,-5,-8,-2,-4,2,-6,-4
6625274142,-1,-2,-6,14,17,2,7,-3
6625280918,-7,-6,4,-22,-25,-12,-12,-7
6625280918,2,16,5,17,5,-7,-5,-2
6625297282,-22,-36,-12,-18,-6,3,1,-6
6625297282,4,20,3,14,-22,-13,-8,-4
6625298766,8,4,-5,-5,7,-1,-4,-2
6625298766,-23,-33,6,-10,-9,-5,-3,-11
6625310938,2,-1,6,9,-1,-3,-5,0
6625310938,-3,17,-19,3,-6,-5,-4,0
6625319913,0,1,14,19,9,4,-3,-5
6625319913,21,17,-16,0,3,3,9,9
6625334158,5,15,4,-5,5,-5,-9,-3
6625334158,-14,1,6,-14,-4,6,-3,0
6625340962,-2,-25,1,0,-6,-2,2,-4
6625340962,1,13,-7,-18,5,-3,-3,2
6625357289,8,5,-12,13,-3,1,2,4
6625357289,-15,-10,5,-1,-4,1,1,-6
6625358799,3,-3,-8,-1,9,2,5,3
6625358799,8,19,12,8,2,2,5,3
6625370922,2,-8,7,-1,-12,-8,-10,0
6625370922,3,0,-4,-8,5,3,2,5
6625379808,-4,17,9,19,-4,-6,-2,-4
6625379808,-5,1,-5,-9,7,8,5,-1
6625394160,15,27,3,6,0,-1,-5,5
6625394160,-5,-9,-1,-11,1,4,0,-1
6625400790,3,17,-10,0,-8,-9,-5,-2
6625400790,0,13,7,-5,-5,-6,-2,0
6625417323,0,6,-5,-12,3,-1,-2,-2
6625417323,-15,-20,-11,-2,-5,-8,-13,-8
6625418796,12,-4,-1,2,5,6,8,6
6625418796,-2,4,6,12,7,6,9,0
6625430961,0,-22,-4,3,-1,-3,-10,0
6625430961,3,-4,-2,-7,2,3,-1,1
6625439913,6,10,0,2,-6,-13,-4,0
6625439913,-12,-10,7,2,-7,8,-6,-4
6625454177,-4,-4,-9,0,11,7,6,-1
6625454177,3,-8,-7,-23,-4,1,1,2
6625460949,4,-18,-7,2,-2,-1,0,0
6625460949,10,-5,0,-4,-1,-6,-1,1
6625477324,-3,-2,6,1,-4,-3,-6,-1
6625477324,-2,3,-1,5,0,-2,-5,-7
6625478823,-11,-7,2,-1,0,7,9,-1
6625478823,6,-8,-1,-2,1,-3,4,1
6625490906,1,1,-1,0,-6,-2,0,-1
6625490906,2,6,5,1,1,1,16,-2
6625499789,-4,-5,-2,1,-2,-3,-28,3
6625499789,-1,7,-4,-2,0,-2,-11,-1
6625514126,18,15,5,4,0,0,8,3
6625514126,-19,-7,-3,0,0,0,-5,-3
6625520842,-7,-13,-5,-10,-5,-1,-3,-3
6625520842,-31,-8,-5,-9,-3,-4,2,-6
6625537224,4,-1,2,16,3,0,-4,2
6625537224,15,-4,4,-8,0,-2,-8,4
6625538783,5,14,5,10,3,2,4,-3
6625538783,15,15,6,4,-3,-1,0,4
6625550942,12,15,7,-7,-2,0,3,-1
6625550942,-21,45,2,0,4,8,7,1
6625559787,11,-30,-2,9,3,2,6,8
6625559787,-61,-15,-15,-15,-5,-8,-4,-18
6625574093,15,87,18,8,-5,-5,-5,-2
6625574093,5,-92,-5,19,2,-1,0,3
6625580960,9,43,-15,-30,-2,2,1,1
6625580960,8,-54,-14,6,-6,-5,-5,1
6625597308,-2,-5,17,13,0,-2,1,3
6625597308,2,30,-5,-20,7,5,-3,-9
6625598796,-5,-10,-1,-5,2,4,5,-3
6625598796,10,34,6,0,8,4,6,11
6625610909,-28,-103,-17,-15,-3,-1,-2,-10
6625610909,1,57,18,33,3,0,0,3
6625619814,11,-32,0,-2,-9,-10,-8,-1
6625619814,2,1,-16,-22,-3,-3,-6,-4
6625634131,10,50,7,34,-5,-11,-1,4
6625634131,-7,33,1,-5,1,2,-5,-3
6625640961,-23,10,-1,-16,1,6,-2,-8
6625640961,2,-19,-1,20,11,3,4,-2
6625656605,-6,6,-10,-14,-3,2,2,0
6625656605,-8,-15,5,-17,-7,-11,-7,-7
6625663411,9,52,-4,-6,-1,0,5,-2
6625663411,13,42,6,7,2,8,28,10
6625670942,-13,17,-7,-5,-5,-1,-4,-3
6625670942,18,0,0,7,-4,-6,-2,2
6625679787,-51,-72,-5,-1,-5,-5,0,-9
6625679787,18,-59,-10,-24,-18,-12,-8,-5
6625694048,-3,-34,5,13,8,3,3,1
6625694048,23,-45,-9,-26,-4,1,3,10
6625700824,8,19,19,23,4,-3,-9,-5
6625700824,-15,7,0,2,-5,2,-4,-6
6625716612,3,-17,1,-17,6,-3,-3,0
6625716612,12,-14,-6,-14,0,6,3,6
6625723343,-3,-11,-15,9,12,1,-2,-1
6625723343,4,23,12,17,-3,4,-4,1
6625739666,2,3,3,-2,6,1,-2,-1
6625739666,-18,-19,-22,-21,-17,-15,-10,-4
6625741313,18,8,7,17,-3,1,18,3
6625741313,12,32,6,0,3,2,-21,-6
6625753427,-10,-12,-4,8,-9,-3,26,2
6625753427,2,-4,-9,-14,10,2,-4,-3
6625762310,-35,0,0,-2,-6,-2,5,-2
6625762310,6,0,-6,-8,8,-6,4,-1
6625776659,-6,-10,-2,-2,-2,0,-13,-6
6625776659,9,10,-7,-18,-16,1,5,1
6625783428,-6,-4,7,-9,-1,2,-3,-2
6625783428,3,6,-4,3,-7,-6,-9,0
6625790916,-2,-15,-22,-11,16,7,-1,0
6625790916,-26,-6,14,34,-2,6,0,-7
6625799814,23,23,-5,0,7,6,-2,7
6625799814,-23,-38,11,-38,-2,2,-3,-7
6625822300,4,5,-5,-15,-4,-3,-2,0
6625822300,-6,-7,-6,31,-11,-7,2,1
6625823793,15,7,10,26,16,-3,-7,4
6625823793,2,16,7,-25,-6,-6,4,0
6625836535,11,26,1,26,-5,-3,-1,4
6625836535,-15,-17,-7,-17,4,-2,-7,-8
6625843402,8,20,15,18,-3,-3,-2,1
6625843402,0,-4,19,36,14,4,5,2
6625859734,-20,1,-10,-42,-11,-8,-15,-11
6625859734,13,19,-11,-9,-5,-4,0,2
6625861240,-4,-27,-12,-18,-9,-7,-6,-3
6625861240,-1,-4,-3,3,-4,0,3,-2
6625874004,2,2,-1,6,3,3,2,2
6625874004,-7,8,-2,-5,4,-7,-3,-5
6625880937,4,-6,0,3,-2,8,7,7
6625880937,-3,-6,-7,1,-4,-7,-12,-3
6625896644,-4,-18,0,-3,-5,-1,1,-1
6625896644,-2,2,9,4,-2,-5,-4,-3
6625903355,4,-4,-7,-9,0,1,3,2
6625903355,-4,3,-4,8,0,1,3,3
6625919648,-5,-4,1,-1,0,0,-5,1
6625919648,-1,-6,1,1,5,-1,1,2
6625921243,3,-4,1,-5,-6,2,-2,-2
6625921243,1,2,-7,-3,3,0,0,-3
6625934120,18,2,2,1,-3,-5,-27,-2
6625934120,9,-1,0,5,4,5,-7,6
6625940901,-23,-5,1,-1,-1,-1,-5,-4
6625940901,20,-14,-13,-4,-3,-2,6,4
6625956648,-4,11,10,3,1,-3,2,-1
6625956648,-3,-22,3,3,0,0,-12,-1
6625963310,-10,-12,-7,-6,-4,3,-1,-5
6625963310,-5,-6,-3,2,1,2,-2,-3
6625979727,-4,-34,-8,-2,-4,-1,12,1
6625979727,14,48,5,0,2,2,-18,0
6625981274,-3,-23,-12,-4,-5,-6,12,-2
6625981274,0,-1,5,7,0,-4,-1,1
6625993440,-13,1,-10,-9,0,2,-2,-3
6625993440,1,5,-2,-14,-1,-1,5,-1
6626002262,5,12,8,15,-1,-5,-13,-2
6626002262,21,31,15,8,-3,1,2,9
6626016538,-32,-5,-2,3,5,0,0,-10
6626016538,-10,-9,-19,-8,7,6,6,-5
6626023432,1,26,0,8,-8,-3,1,6
6626023432,-18,53,1,-24,-4,-4,-6,-13
6626039757,20,13,-9,-8,-4,1,-1,-1
6626039757,-12,-18,12,26,2,3,11,4
6626041290,6,-7,-3,-34,-5,-7,-10,-7
6626041290,5,83,10,14,-4,2,2,3
6626053412,-5,-27,2,-36,-7,-7,-9,-4
6626053412,6,53,-3,-15,-8,-5,3,-3
6626062279,5,-97,-20,6,-9,-3,16,5
6626062279,-11,-16,0,-1,3,3,-25,-5
6626076590,-10,31,14,-2,5,5,5,-4
6626076590,6,-68,3,24,1,-2,3,1
6626083335,6,-62,-14,-22,-3,-2,1,6
6626083335,5,42,0,-26,-5,-2,7,0
6626099789,-43,-56,-15,57,-6,-6,-3,-11
6626099789,3,-57,-18,-59,-5,-7,-21,-7
6626101258,48,127,35,28,12,13,34,15
6626101258,-32,-80,-29,2,10,8,11,3
6626113349,28,35,-34,-41,-15,-8,-9,-2
6626113349,-65,-46,-8,16,7,2,13,-12
6626122249,-12,31,6,-4,-11,-9,-34,-15
6626122249,5,-65,7,46,6,-4,-10,8
6626136627,37,86,48,11,4,10,27,12
6626136627,1,13,-14,21,-11,-7,-1,1
6626143433,7,41,-12,-55,-5,-5,-7,-5
6626143433,5,13,7,-2,-13,-14,-9,-1
6626159691,-10,-41,-16,-11,9,7,-6,3
6626159691,23,63,23,18,21,16,8,8
6626161312,-19,-5,9,1,17,6,-4,-6
6626161312,11,-32,-19,-14,-18,-6,-10,-4
6626173409,-5,-10,3,5,11,5,3,7
6626173409,18,2,9,-2,-15,-13,-15,0
6626182275,-18,-39,-19,8,-13,0,15,1
6626182275,4,0,-6,-19,10,-3,11,0
6626196612,-23,-13,5,21,13,-5,-6,3
6626196612,4,13,10,34,1,7,1,-8
6626203346,-1,-10,3,-7,12,-8,-5,-8
6626203346,13,0,-7,7,-20,2,-3,5
6626219683,-17,2,6,-3,-4,-4,3,-3
6626219683,-7,-12,-11,-19,0,1,3,-1
6626221257,-3,4,-6,35,-3,-3,-1,-5
6626221257,-4,-4,-4,-13,14,2,16,0
6626233450,18,3,-5,-26,-4,0,-5,1
6626233450,3,25,5,-9,-21,-6,-3,2
6626242264,-7,12,16,53,9,-1,-16,-2
6626242264,-2,12,-17,-26,8,7,4,0
6626256513,-8,14,16,2,-9,4,0,-4
6626256513,7,34,4,5,8,8,11,5
6626263456,7,24,-22,-26,-9,-1,4,4
6626263456,-7,-19,23,-7,4,3,-7,-7
6626279634,9,-39,-22,6,-8,-12,17,0
6626279634,5,-34,-6,-26,-6,-5,-5,1
6626281237,-15,-31,20,27,12,8,0,0
6626281237,-7,-16,-15,-34,-7,-6,-7,-7
6626293381,12,-17,-10,-2,-4,-3,-7,0
6626293381,-1,3,10,7,0,-8,-4,-3
6626302346,2,-21,10,26,5,1,0,1
6626302346,-10,-13,2,1,10,4,4,-3
6626316606,9,16,7,15,-2,1,-6,0
6626316606,12,32,3,-11,-12,-15,-5,3
6626323428,-12,-2,14,18,11,4,-1,-6
6626323428,-2,8,2,5,-7,-5,0,-3
6626339748,4,16,6,7,6,3,-3,4
6626339748,-14,-14,-20,-6,-6,-4,-15,-4
6626341269,12,6,-10,-33,-9,-7,3,2
6626341269,1,1,1,11,-3,5,-5,-3
6626353408,-2,3,4,4,-4,0,8,-2
6626353408,-4,-17,12,-4,8,4,14,-1
6626362254,-4,-5,-14,-30,-13,-6,-11,-9
6626362254,-7,-13,-11,12,-1,1,9,1
