timestamp,emg1,emg2,emg3,emg4,emg5,emg6,emg7,emg8
7261293386,13,-7,-1,-2,-3,3,2,7
7261293386,-2,-18,-5,0,1,-1,0,2
7261294370,-4,11,1,-6,-6,-6,-4,-1
7261294370,-1,-14,-13,-3,4,5,4,-2
7261295693,-14,-17,7,8,4,1,0,-5
7261295693,3,8,-3,-3,-1,1,-2,-4
7261296366,-12,7,-2,0,0,-1,2,1
7261296366,20,-5,1,-3,-5,-5,-2,-1
7261306309,2,-3,-5,-2,-1,0,10,3
7261306309,-11,17,2,0,0,1,-1,-6
7261309851,-12,-11,-6,1,0,-2,-5,-4
7261309851,5,-5,1,-3,-4,-2,4,1
7261321133,1,12,-5,-11,0,-1,-3,-3
7261321133,9,8,7,9,0,-2,-2,1
7261333493,-1,-12,-2,2,0,0,-2,-2
7261333493,-13,-1,-3,-2,1,1,-2,0
7261341202,4,5,-4,-6,-3,-3,-1,-10
7261341202,-10,-17,-4,-5,-6,-13,-6,5
7261348534,4,2,9,5,6,18,35,4
7261348534,2,17,5,3,-2,0,1,0
7261366382,-5,5,1,1,-3,-2,-4,-3
7261366382,-6,-14,-5,-6,-3,-6,14,8
7261369920,12,3,-8,-5,-3,-18,-32,-20
7261369920,-2,-2,-5,-6,-4,15,-21,13
7261417963,-21,20,-1,-8,-6,-6,10,0
7261417963,7,78,28,11,7,-3,-5,0
7261418932,-7,-93,-28,-2,-4,-3,6,-1
7261418932,11,29,1,1,-1,-3,-2,0
7261419617,17,68,34,11,1,3,5,3
7261419617,-30,-96,-62,-40,-20,-9,-10,-14
7261422835,15,127,-15,7,10,1,-4,2
7261422835,15,-49,22,17,1,4,3,8
7261429547,-18,-18,-21,-3,-19,-5,-10,-9
7261429547,13,29,37,3,27,6,5,5
7261437828,-19,8,10,37,-6,4,0,-7
7261437828,-4,-5,-42,-36,4,-9,-8,-6
7261444646,-19,-34,-20,-11,-5,1,-4,-3
7261444646,2,-71,31,40,-8,-3,5,6
7261460341,8,83,6,-30,4,-6,-1,0
7261460341,-4,-32,-11,4,9,9,6,-2
7261467083,-3,-62,14,11,1,-4,-5,3
7261467083,11,74,-16,-17,-8,6,0,0
7261474635,9,-71,26,6,-6,-16,-10,5
7261474635,-5,26,7,0,-18,-15,-30,0
7261489598,5,22,-17,-14,8,-1,-16,-10
7261489598,-10,20,9,10,2,-1,2,-5
7261497790,8,10,-4,-5,3,13,-7,12
7261497790,-15,6,6,2,4,-2,12,1
7261504635,5,20,-5,-5,-5,3,-6,0
7261504635,-9,26,-23,-10,-11,-20,-9,-11
7261520357,-3,10,1,-12,-22,-4,2,0
7261520357,-12,35,-3,7,17,7,-1,1
7261527117,2,13,9,0,5,4,6,1
7261527117,9,3,-13,-10,9,13,17,3
7261534652,-4,-51,7,11,-3,-2,3,-4
7261534652,0,-28,4,13,1,-5,-3,3
7261549635,1,-28,5,-35,-8,-2,7,-3
7261549635,-5,-55,-9,76,35,11,-7,1
7261557532,-26,-69,16,-20,-21,-5,-9,-15
7261557532,5,5,-17,-65,-21,-9,4,-1
7261565990,3,-12,7,10,8,8,-6,-4
7261565990,-3,-37,-13,-28,-10,0,3,-1
7261580277,-4,-5,3,36,2,-3,3,-4
7261580277,2,9,-11,61,-1,3,17,-4
7261587067,4,-27,1,2,22,1,9,3
7261587067,-8,-7,9,-27,-22,-6,-6,-4
7261594581,0,14,-10,-18,2,1,5,-1
7261594581,-2,-4,-9,-30,-7,-7,-11,-5
7261609593,3,16,-8,6,-7,-7,-4,2
7261609593,-5,8,11,16,5,5,4,-2
7261617804,3,19,2,-10,1,-4,-4,-2
7261617804,-5,-13,1,13,14,9,5,-4
7261624477,1,-6,-5,0,-2,-3,-2,-1
7261624477,4,12,-3,-7,-12,-18,2,-3
7261640319,-1,2,-13,-6,17,20,18,8
7261640319,-6,-9,4,-12,-11,-8,-16,-6
7261646985,8,6,-7,13,-3,8,28,8
7261646985,12,-4,-6,-18,-4,-7,-7,3
7261663440,3,6,2,-3,-1,-7,-7,0
7261663440,-10,-1,-1,1,-8,-2,-9,-10
7261669653,1,4,2,3,1,-10,-7,1
7261669653,-7,-2,-6,-10,-7,1,-11,1
7261678495,-4,-5,-5,0,10,8,13,-3
7261678495,3,12,13,7,-1,2,9,3
7261684467,1,2,-5,-9,-6,-11,-9,-5
7261684467,-2,8,-1,-8,-3,-7,-2,-5
7261700972,2,2,1,7,4,5,-30,11
7261700972,-2,-8,0,-1,4,-5,16,3
7261707093,3,1,5,6,-1,17,5,1
7261707093,1,-11,-1,0,-2,-3,1,-1
7261723465,-1,-12,-1,-2,0,0,4,-2
7261723465,-6,-4,1,-2,2,-1,-4,-4
7261729550,2,-3,-6,0,-3,-8,-22,-1
7261729550,-5,-3,4,-1,-6,1,-9,7
7261738470,3,-3,-13,-14,-10,-8,3,-6
7261738470,7,0,3,-4,-4,-3,-6,6
7261744596,-15,-9,5,12,12,12,14,-4
7261744596,5,3,4,2,4,3,-1,2
7261760967,-2,2,2,6,-2,-7,0,-3
7261760967,-2,5,4,-7,-6,-1,1,-2
7261767190,1,3,-6,-1,-6,-11,-10,-3
7261767190,-8,5,2,1,5,0,9,-2
7261783526,9,11,-4,-2,-1,2,-3,0
7261783526,15,6,4,0,-4,-2,-8,2
7261789608,-16,4,-4,-13,1,-1,3,3
7261789608,6,-9,0,10,0,1,0,-2
7261798447,-15,6,-8,-19,-1,-5,-3,-4
7261798447,0,-12,-8,1,-2,0,0,-4
7261804646,5,-42,7,10,-1,-1,-2,4
7261804646,-6,69,11,9,3,2,2,-3
7261821001,24,18,23,9,4,-1,3,2
7261821001,0,-22,-9,-18,-1,0,-1,0
7261827021,-7,37,3,16,-7,-3,-2,-4
7261827021,-1,-47,-29,-31,3,0,-4,1
7261843502,9,65,33,34,1,-1,-2,-5
7261843502,-29,-77,-11,-8,1,5,8,2
7261849509,-4,51,-6,-3,7,-5,-5,-2
7261849509,6,-35,10,62,3,0,0,-3
7261858447,-13,-33,-15,-21,3,0,-1,2
7261858447,7,51,-10,-17,-5,-3,-5,-3
7261864565,-1,-64,4,-18,-11,-4,-1,-3
7261864565,-16,11,-13,-3,4,-1,0,-2
7261880979,26,-16,3,9,0,-2,0,2
7261880979,-10,50,9,12,-6,-5,-7,-2
7261887115,-13,-42,-11,-13,0,2,2,-6
7261887115,20,81,35,6,-5,5,3,11
7261903509,-24,-39,-38,-13,6,2,-1,-5
7261903509,9,-30,-8,0,-2,-2,-1,-4
7261909586,19,51,6,-1,-6,-5,0,4
7261909586,-6,-20,-15,-15,5,4,1,-1
7261918664,-10,30,15,-2,-6,-1,-4,-6
7261918664,5,-13,8,24,4,1,2,1
7261924515,7,19,-4,-25,-13,-9,-7,-3
7261924515,-3,-46,-21,-2,3,0,2,-1
7261940997,-14,-11,-13,-8,-2,8,3,0
7261940997,9,7,3,-10,3,-3,-2,-2
7261946983,-3,-13,8,22,-3,4,0,-2
7261946983,-7,2,5,2,14,-5,3,3
7261962136,2,-7,-10,12,-3,-7,-8,-5
7261962136,-5,22,11,21,9,7,3,0
7261969617,-1,5,-3,-12,-16,-7,2,-2
7261969617,4,-4,-1,-13,18,-7,-9,-8
7261978453,-19,-11,7,15,-16,-6,-7,-3
7261978453,6,6,12,-16,-12,0,11,4
7261984646,-4,-5,-2,43,7,1,-11,0
7261984646,-3,-6,3,-25,-2,-1,5,-5
7262000935,5,-7,-1,-14,11,6,9,-2
7262000935,-1,22,-2,-6,-21,-16,-43,0
7262007116,3,-3,-14,-10,5,-1,10,-2
7262007116,-4,-8,4,20,-5,7,3,-2
7262022130,-2,-6,-9,-10,-13,-4,3,-3
7262022130,7,9,-5,9,2,-5,-4,2
7262029610,2,-4,10,26,15,2,-5,-1
7262029610,-5,-15,-10,-21,-16,-16,-24,-7
7262038470,-3,-1,6,-15,-9,4,25,1
7262038470,2,2,-18,6,10,3,19,4
7262044492,2,11,2,14,15,2,-7,0
7262044492,7,8,-2,2,-5,10,13,1
7262060927,-6,8,12,6,-1,-12,-13,-6
7262060927,-4,-4,4,1,1,-9,-5,-3
7262067159,14,20,3,-11,-12,-6,9,2
7262067159,-7,-1,-12,-13,-8,-5,-6,-2
7262082072,-4,-8,-6,-11,-8,-2,-36,-2
7262082072,-17,-18,2,-11,-5,4,9,-10
7262089560,-1,-6,-5,-10,9,6,-9,4
7262089560,-3,1,5,-2,-8,-5,4,-6
7262098447,10,-3,-5,2,3,-5,-1,5
7262098447,-12,-14,11,5,3,2,0,-3
7262104584,-10,-16,-6,-14,-8,-13,5,-9
7262104584,4,-5,-5,-3,-7,14,-54,7
7262120983,-1,0,-3,3,2,-7,16,5
7262120983,-8,-11,-4,-6,1,14,-1,-8
7262127036,-4,-5,1,-1,4,-9,5,6
7262127036,1,-8,1,0,-5,-8,0,-3
7262142093,1,7,-8,-6,0,6,8,-2
7262142093,7,10,4,3,5,0,12,4
7262149608,-6,-10,-8,-5,-2,-7,0,0
7262149608,5,-1,-1,0,-4,15,15,1
7262158490,-7,-7,1,1,1,-15,-2,1
7262158490,4,-3,-2,-1,0,11,3,-2
7262164580,1,-12,5,-1,-1,2,-5,-3
7262164580,3,3,2,-4,-4,-15,-1,0
7262180981,-12,-10,-4,5,-2,8,4,-6
7262180981,-7,-7,-13,-9,1,11,-13,1
7262187090,-11,9,-1,-5,-2,-2,4,-1
7262187090,6,8,12,-4,-2,-5,-6,1
7262201978,15,-5,-10,4,0,10,-4,0
7262201978,3,22,1,8,10,-8,-4,2
7262209568,0,-44,19,5,-12,7,-2,-2
7262209568,-11,30,-3,-6,2,-1,13,-1
7262218448,19,44,-5,-22,3,-1,-3,-2
7262218448,0,28,10,-22,-11,-2,4,3
7262224619,-11,-40,-48,-10,13,5,-5,-6
7262224619,-8,4,20,32,-14,-3,1,-3
7262240971,19,61,15,16,18,2,2,4
7262240971,6,-14,16,19,1,-4,-3,-5
7262247075,-20,62,-14,-38,-3,0,1,-5
7262247075,4,0,5,9,-3,0,3,3
7262261987,15,13,2,12,2,10,7,8
7262261987,2,-8,-39,0,-4,-8,3,-5
7262269599,-22,6,24,20,3,7,18,11
7262269599,-8,-1,-22,-50,-9,-8,-22,-13
7262278425,34,81,54,41,-14,-8,-2,12
7262278425,-22,-69,-4,5,18,11,10,-5
7262292145,0,-56,-36,-29,-2,-1,-2,-4
7262292145,-23,39,-33,-2,-10,-4,6,-4
7262300923,5,-64,-5,43,10,4,4,2
7262300923,0,56,8,-53,-12,-13,-10,-2
7262307104,4,20,1,20,1,0,-10,-4
7262307104,17,28,13,-13,11,6,11,8
7262321938,-22,-38,-11,1,-1,-10,-18,-8
7262321938,6,36,-4,5,9,5,8,2
7262329476,9,5,19,20,-4,1,0,0
7262329476,15,14,-8,-43,-10,-2,4,1
7262338489,-19,-21,-9,2,6,-18,-7,-9
7262338489,-13,-22,-1,-8,-17,-1,-1,1
7262352132,9,10,2,-7,9,-8,-15,-1
7262352132,-9,-64,6,19,-25,-5,-1,-11
7262360930,-18,-48,-11,-12,12,9,7,-3
7262360930,7,-20,7,1,17,11,3,4
7262367056,9,-6,1,1,5,11,6,2
7262367056,19,12,-2,51,25,-2,5,5
7262382077,-22,-17,-4,-49,-31,-17,-14,-8
7262382077,-2,13,10,35,0,3,-3,-6
7262389562,11,19,19,-25,-15,-15,-10,-2
7262389562,-4,2,6,1,-4,-3,7,0
7262404510,-9,-22,-23,-44,-2,12,8,3
7262404510,2,-16,-1,5,12,-9,-5,0
7262412089,2,-11,0,-1,-25,-4,-4,-3
7262412089,-15,-35,2,22,-7,-7,-8,-5
7262421010,-8,-10,5,-4,8,5,-4,-9
7262421010,-4,0,-9,-27,-6,2,4,1
7262426958,-4,7,-1,8,-2,-2,3,-2
7262426958,-8,3,3,5,13,7,-1,-2
7262442122,6,28,-13,-7,-15,-5,1,2
7262442122,-8,12,9,16,-11,-14,-9,-5
7262449561,0,12,-3,-4,15,2,-1,1
7262449561,4,-14,16,15,2,9,6,3
7262464628,-1,-3,-26,-41,1,-1,-2,2
7262464628,-2,-12,-5,-11,-13,-1,-2,-2
7262472132,-1,4,-7,-6,-4,-16,-6,-3
7262472132,4,12,16,17,-2,6,-2,0
7262487738,-2,-11,3,13,12,3,11,1
7262487738,1,-1,-7,-2,-9,-3,-1,0
7262488414,7,0,-3,1,-4,2,1,4
7262488414,-2,0,-1,0,0,-7,2,0
7262501946,-2,0,6,9,-5,-2,-8,-4
7262501946,2,-1,-7,-10,-3,-4,1,0
7262509578,-3,3,1,4,-7,0,-7,-4
7262509578,1,-12,-13,-17,2,0,16,-1
7262524468,-2,4,2,5,3,5,-7,0
7262524468,3,4,9,13,-4,-10,-1,1
7262532104,-8,-3,3,3,6,0,-9,-2
7262532104,-14,-13,-7,-14,5,13,16,3
7262547735,5,-9,0,3,-8,2,-5,-3
7262547735,10,0,-7,7,3,-6,-11,2
7262548439,-5,-8,-5,-5,-8,-1,20,-2
7262548439,-8,-9,-5,-14,-3,-1,-28,-9
7262562110,2,-2,4,3,-1,-14,-30,2
7262562110,-8,-7,7,9,-3,10,12,1
7262569613,3,-9,-7,-2,1,2,-11,-2
7262569613,7,-2,-1,-3,5,0,2,1
7262584488,-21,5,-4,6,0,2,-1,-4
7262584488,7,11,-5,-12,-5,-2,5,2
7262592105,-4,11,6,7,0,7,0,1
7262592105,0,-16,-11,-11,3,-15,-7,-3
7262607710,0,9,15,4,-7,11,7,0
7262607710,5,10,11,16,4,-1,-5,-1
7262608399,-15,3,-12,-4,-2,1,9,2
7262608399,5,5,3,0,-1,-1,-5,-1
7262622059,-1,-87,-31,-6,2,-5,6,-1
7262622059,-3,45,0,-1,-1,-2,-4,-2
7262629583,29,21,24,13,7,9,1,5
7262629583,-37,-27,0,13,-7,-7,-7,-9
7262644504,-10,28,14,-8,-3,-2,3,-2
7262644504,4,-25,-34,-35,-10,-2,-1,-3
7262652053,-6,-25,-12,7,12,2,-1,-5
7262652053,18,58,11,-14,-7,-2,0,11
7262667747,22,89,26,48,5,-4,4,2
7262667747,-33,-96,-5,-2,6,2,-3,-4
7262668446,6,25,-17,-10,-5,-7,-4,-2
7262668446,-2,23,2,3,-1,-2,-4,-2
7262682069,14,62,15,8,-5,0,0,6
7262682069,16,5,-9,-32,-5,-5,-1,6
7262689579,-6,27,2,0,-9,-5,-5,-7
7262689579,-8,-6,2,12,23,16,9,-1
7262704447,-2,-44,2,-10,-8,-4,7,4
7262704447,21,94,19,24,7,1,-6,3
7262712051,-32,-12,4,-11,-5,-1,-1,-5
7262712051,3,-73,-25,-6,-21,-13,-8,-6
7262727710,10,87,1,-5,15,3,1,-3
7262727710,-1,-10,10,11,2,2,6,-1
7262728419,2,-13,-12,-16,-8,-3,-3,1
7262728419,2,39,6,20,15,13,6,4
7262742061,6,-59,-11,1,-5,-5,-3,-1
7262742061,-24,-69,-11,5,-3,-2,-7,-9
7262749557,20,61,-1,-18,-13,-11,-4,0
7262749557,-2,-75,-20,-15,-7,4,2,5
7262764567,-18,-42,-1,15,3,1,2,-7
7262764567,30,34,4,-18,11,-2,-2,6
7262772069,-21,-42,6,5,-11,-1,3,0
7262772069,1,-2,7,9,11,1,-2,-3
7262787785,-3,0,-21,-21,-5,-10,-1,-3
7262787785,-15,-23,0,21,-8,6,-2,-7
7262788411,8,2,18,27,2,1,2,1
7262788411,-1,9,-29,-44,-25,-13,-6,-5
7262801941,-5,-11,-3,11,-6,-4,4,-2
7262801941,3,12,5,17,14,1,1,-1
7262809426,-9,-20,1,-20,12,5,1,-3
7262809426,13,44,8,27,-5,1,1,3
7262824571,-7,-18,-7,-35,-2,0,-4,-6
7262824571,-5,-13,-1,5,-10,1,4,4
7262832085,14,21,4,37,36,-3,-3,1
7262832085,-9,1,7,-25,-1,-2,-1,-1
7262847746,-11,-12,5,4,-10,-3,-7,-8
7262847746,-1,-3,15,9,-1,-2,-2,-2
7262848395,-9,-26,-11,-14,5,5,-3,-7
7262848395,2,-2,9,1,-8,-6,-2,3
7262862087,3,2,-4,21,0,5,2,4
7262862087,-8,4,-5,-1,10,8,3,-2
7262869592,-3,10,18,11,2,3,0,-4
7262869592,-5,-1,1,-2,-7,-17,-12,-8
7262884581,-13,-4,-3,-24,-5,1,-4,-5
7262884581,0,19,2,-6,-1,-5,0,-4
7262892005,0,1,-17,-2,-6,14,11,1
7262892005,6,8,-4,-5,3,-2,-1,2
7262907669,4,8,6,7,4,-2,2,2
7262907669,-3,13,3,-3,-1,3,-16,-1
7262908485,0,-4,-8,-12,-10,-18,9,1
7262908485,6,7,6,12,11,10,-12,4
7262922089,-9,0,-16,-16,2,9,6,-1
7262922089,-1,2,-10,-7,-12,-3,27,-14
7262929425,14,-3,10,10,5,7,-16,19
7262929425,4,-16,-10,-7,-3,-15,-7,-5
7262944546,-5,-26,2,4,-2,-10,-21,4
7262944546,31,-8,1,-1,-3,5,39,6
7262952061,-27,-3,-1,-2,-4,-11,-2,-1
7262952061,-23,-23,-2,-2,3,13,7,-10
7262967765,1,3,-1,-9,-4,-12,-1,-5
7262967765,-1,-13,0,0,-7,-5,-36,-3
7262968416,23,-25,-20,-26,-6,-5,-8,2
7262968416,3,1,8,1,-3,0,13,6
7262982078,-31,-17,-4,4,11,4,8,-10
7262982078,0,-4,-8,-6,-4,-12,-9,4
7262989569,2,10,6,7,-5,9,4,-3
7262989569,5,7,2,-5,-2,-1,6,-2
7263004608,16,2,-3,-12,-6,4,-4,1
7263004608,-4,5,2,-5,-5,-5,-3,3
7263012066,-8,2,-2,14,6,-1,-4,-6
7263012066,-4,0,-1,-3,2,0,-6,-3
7263027674,25,5,5,13,-5,-2,5,6
7263027674,-30,2,5,25,1,0,-8,-3
7263028402,-15,-13,-7,-27,-5,-3,0,-8
7263028402,30,10,-4,-6,-5,-3,-2,7
7263041943,-11,8,0,1,0,2,-2,-6
7263041943,-30,-4,2,5,-4,-2,-1,-8
7263049531,-6,-8,-4,-10,-9,-4,-2,0
7263049531,17,9,0,1,4,3,0,5
7263064550,3,50,-4,-16,-4,-4,6,5
7263064550,-9,-76,-15,-8,-3,-3,-7,-10
7263072033,-2,39,18,18,9,7,7,1
7263072033,18,22,4,6,1,-2,6,3
7263087668,-13,-59,-4,-7,-4,0,0,-1
7263087668,-8,123,-7,-2,3,-3,-6,-6
7263088435,0,-120,-25,-7,-13,-7,-7,-4
7263088435,-5,110,11,9,-3,-5,-3,-6
7263101986,-34,-66,-10,-12,5,-2,-3,-4
7263101986,37,-28,2,-6,-4,-4,1,12
7263109568,-5,-14,-18,-22,2,3,7,-1
7263109568,10,13,7,15,12,12,5,4
7263124583,-6,6,11,7,-13,-7,-8,-8
7263124583,-4,-7,-7,0,9,-3,-1,4
7263132083,20,-3,4,11,-12,-11,-10,-5
7263132083,-26,-32,2,11,11,5,-1,-3
7263147677,24,17,1,0,-6,-2,-1,4
7263147677,-17,-48,-20,-38,-2,4,1,-6
7263148365,14,81,5,13,-11,-4,-2,4
7263148365,-3,-21,-17,-17,-7,-14,-7,-7
7263162036,-53,-41,-5,-6,-9,0,-4,-11
7263162036,9,21,20,16,9,10,9,7
7263169431,-11,-11,0,-16,16,5,4,-4
7263169431,7,-8,0,-2,0,2,0,4
7263184518,27,-37,-15,-8,-14,-7,-5,0
7263184518,-29,-58,-9,4,-5,-6,-6,-10
7263192079,-4,7,6,10,-10,-13,-3,-4
7263192079,-2,-42,-1,-40,-8,6,2,0
7263207705,16,0,-5,3,12,10,7,6
7263207705,4,35,2,3,-1,-9,-2,-2
7263208415,14,-7,11,-10,-15,-1,-2,3
7263208415,-25,-14,3,17,17,-2,-2,-9
7263230239,4,11,-6,-4,4,1,0,4
7263230239,10,11,10,0,-1,4,-2,0
7263230918,-18,-3,-9,-17,-13,-6,-1,-3
7263230918,-3,-13,-15,20,-1,3,6,0
7263244572,3,26,1,11,15,9,1,-2
7263244572,6,1,-7,-5,-13,2,5,3
7263252073,8,16,7,16,3,1,1,0
7263252073,-6,-13,-6,-23,-5,-3,-1,2
7263267050,10,11,-3,12,5,-9,-4,-1
7263267050,12,21,8,14,-3,-4,-6,-1
7263275205,-16,-10,-5,4,8,4,-2,-5
7263275205,-3,7,0,2,-24,-17,-3,-2
7263290208,-3,6,5,-3,22,5,-3,-4
7263290208,2,3,13,1,-23,1,-9,-3
7263290957,1,3,-8,-3,11,-4,-2,-4
7263290957,2,21,-18,14,-2,-18,-4,1
7263304489,-4,20,6,-18,-26,-5,-9,-9
7263304489,13,8,-9,-9,7,-10,-10,5
7263312062,-1,0,3,3,6,15,5,3
7263312062,-6,-8,-2,2,4,7,-2,-1
7263327084,3,18,7,0,1,-13,1,1
7263327084,-8,-4,-25,-34,-5,2,3,-2
7263335244,10,13,8,2,-14,-7,-11,1
7263335244,-2,-8,2,-3,10,9,2,-2
7263342062,8,4,8,9,-4,0,1,4
7263342062,-2,-4,1,9,6,-2,-3,-1
7263349440,-8,3,6,3,5,-13,3,1
7263349440,-10,-2,3,0,-5,13,3,-5
7263364483,5,-3,4,-3,2,13,6,7
7263364483,-1,-1,-6,1,5,0,9,-4
7263372067,1,-21,-7,-3,1,-2,-19,0
7263372067,1,-8,13,1,3,-5,27,3
7263386967,8,-2,-3,3,-3,-18,0,-3
7263386967,-7,-8,2,-2,4,16,-29,4
7263395139,-12,7,0,2,-4,0,5,-4
7263395139,6,-3,2,-3,-5,-4,-7,0
7263401904,-2,3,-4,-5,1,-7,-11,-3
7263401904,5,2,3,4,2,-13,11,-3
7263409431,0,7,-3,-1,1,14,8,-1
7263409431,-4,-7,-7,-9,-9,-5,-8,-2
7263424443,-7,-4,2,2,2,5,-6,-2
7263424443,4,-3,-1,-3,-3,-11,-3,-2
7263432060,10,3,10,5,-2,18,9,5
7263432060,-12,-18,-3,-3,0,-7,-11,-6
7263447055,-12,3,-8,-9,-3,1,4,-1
7263447055,9,-8,-8,7,1,3,5,0
7263455154,11,17,1,-1,-6,-11,-5,0
7263455154,14,1,2,-6,1,3,-2,3
7263470217,-34,2,10,22,1,4,-1,-9
7263470217,4,0,21,29,19,4,6,6
7263470945,-27,27,-34,-19,-4,-2,0,-7
7263470945,17,-26,15,8,-6,-4,-9,0
7263484508,6,9,-18,-20,-1,2,4,8
7263484508,-13,-21,37,26,-14,-2,6,0
7263492078,21,44,-9,-34,10,-2,3,6
7263492078,-25,-58,-30,4,-6,3,-5,-9
7263508355,23,69,-2,-31,0,-4,-2,1
7263508355,-20,7,-11,18,-8,-7,-6,-10
7263515029,7,14,20,13,-7,-3,-1,2
7263515029,18,34,14,2,7,2,0,0
7263530180,-26,-28,12,8,-3,3,2,-2
7263530180,14,62,-29,-38,-4,-2,4,9
7263531040,-16,7,-1,14,2,2,-4,-9
7263531040,8,11,-6,-27,-3,-6,-3,-2
7263544507,8,-14,5,14,1,-5,-7,-1
7263544507,2,18,4,-13,-2,0,4,-4
7263552063,-16,-40,-4,-10,-5,0,-1,-1
7263552063,4,29,7,8,-9,-4,-3,3
7263567052,16,-17,6,24,19,10,6,6
7263567052,-13,15,-12,-7,5,-1,-4,-5
7263575248,24,32,8,25,-5,-10,-5,-3
7263575248,-26,6,6,-12,-8,0,-2,-6
7263590165,18,-22,-9,-9,-9,-2,0,2
7263590165,-22,-30,-23,1,18,10,6,-6
7263590856,-19,-21,6,18,8,2,2,-3
7263590856,14,-10,4,6,3,-19,-6,1
7263604460,-9,4,-11,-21,-21,21,7,-2
7263604460,6,-24,2,-5,-16,-14,-11,-3
7263612008,2,-25,3,-18,-16,-9,-6,-4
7263612008,-3,3,-4,20,37,9,9,2
7263627061,-9,-17,2,-4,-17,-13,-4,-8
7263627061,6,-19,4,-6,-3,5,-1,2
7263635257,-6,-26,0,9,24,15,6,-2
7263635257,13,36,-7,-41,-24,-7,-2,5
7263650184,0,-1,-6,4,-1,4,5,0
7263650184,2,-6,10,20,24,3,5,3
7263651075,6,-8,-4,28,-8,-7,3,3
7263651075,-11,13,-16,-8,-1,14,-2,-5
7263664554,13,12,-2,33,17,-5,0,-2
7263664554,-15,-5,-3,-21,-16,-13,-7,-4
7263672076,17,11,-9,-3,-6,5,1,6
7263672076,-14,-30,10,45,19,-8,-2,-4
7263686997,-8,-6,-1,-25,-2,0,-4,-6
7263686997,11,14,-1,5,-18,-6,-3,1
7263695190,2,-15,5,32,24,5,-2,-5
7263695190,-4,-1,-30,-49,-16,-3,-3,2
7263710176,-4,-2,12,1,-3,6,1,-6
7263710176,1,-8,6,-11,3,-6,-4,3
7263710944,-7,-19,-4,-16,-9,4,9,0
7263710944,2,11,8,10,-4,-6,2,-1
7263724462,9,8,-5,2,-1,-3,-9,4
7263724462,9,13,-7,-11,-4,-4,7,4
7263732072,-8,-3,4,-6,-7,-15,-3,-4
7263732072,-4,-1,-1,8,-3,8,-2,-2
7263746939,-1,14,-5,-6,7,-5,9,1
7263746939,-2,4,5,5,-3,13,-11,-6
7263755113,4,1,2,-7,2,-23,-13,0
7263755113,1,-3,11,2,6,19,13,-5
7263770210,7,-5,-6,-13,-11,-3,-38,6
7263770210,-5,-16,-1,0,4,15,32,-1
7263770963,-6,-14,-4,-8,-1,-7,-26,-2
7263770963,-29,-32,1,-1,-4,5,2,-3
7263792708,-9,-14,-1,4,-1,-15,-20,-5
7263792708,5,-21,-4,-6,-2,-4,-5,-1
7263793338,13,16,4,-6,3,4,8,0
7263793338,1,9,-12,-9,-7,-10,-4,-4
7263806938,-4,3,-5,11,2,-14,9,2
7263806938,-9,1,-9,-4,3,15,-2,-3
7263815179,-3,-9,4,-9,-9,0,1,-1
7263815179,0,-15,5,4,-2,-5,-5,-2
7263830206,14,-11,-6,0,2,4,11,1
7263830206,-1,-4,-2,-7,-7,-15,-7,-3
7263830946,4,-2,0,3,1,6,-10,-2
7263830946,-2,5,-3,2,-2,1,5,3
7263844508,12,10,-4,-8,-2,0,8,-1
7263844508,-30,-1,0,4,-9,-9,-7,-5
7263852057,-27,-9,2,-2,-1,-2,1,-10
7263852057,-1,3,-10,-1,12,6,6,3
7263867073,4,28,4,8,2,6,8,4
7263867073,11,-61,-14,9,2,-6,-10,-3
7263875206,-1,47,4,-25,-7,0,10,3
7263875206,27,39,-6,-1,-11,-7,-6,3
7263890051,-12,-75,-13,4,2,0,-1,-7
7263890051,-12,35,31,13,-5,0,1,5
7263891059,14,-6,-40,-33,3,0,-1,-1
7263891059,-6,-41,13,1,0,3,0,-2
7263904513,-12,14,18,-13,2,2,2,0
7263904513,-8,41,-5,3,-3,-7,-2,-1
7263912062,-17,-10,9,13,3,3,3,-5
7263912062,55,52,27,19,8,5,3,13
7263926936,-20,-25,11,2,3,2,3,-9
7263926936,-6,60,-41,-60,-4,1,-2,-4
7263935112,5,10,7,4,-8,-9,-1,-4
7263935112,-1,5,-12,-16,-6,-8,-12,-1
7263950206,17,36,20,51,6,1,11,7
7263950206,18,17,18,-6,-7,2,-17,-5
7263950944,-46,-15,-19,13,9,2,5,2
7263950944,-9,-24,-5,-1,-13,-3,-11,-10
7263964478,3,32,-3,-20,-10,-11,-5,-3
7263964478,20,-4,-3,11,1,1,6,7
7263971962,29,23,-3,6,-8,6,2,5
7263971962,-24,-5,-6,-13,-1,1,8,-1
7263987057,-4,14,-3,26,7,-3,-4,-2
7263987057,8,-11,0,-11,18,6,4,-3
7263995219,3,-24,15,14,9,-21,-1,1
7263995219,-5,-7,-12,-8,-38,16,-12,-3
7264010198,-2,-13,-13,-32,-6,7,0,1
7264010198,1,-28,12,21,-13,-20,0,-1
7264010888,2,-18,-8,-14,2,2,-2,-5
7264010888,-24,-10,-1,21,2,-14,-3,-5
7264024448,9,10,-9,-36,7,-1,-7,-1
7264024448,-14,-33,7,37,-1,6,0,-5
7264032059,1,-3,12,-16,9,-5,-4,1
7264032059,6,10,-7,-6,-7,-14,-14,-3
7264047074,-17,-7,19,-9,-13,0,-4,-9
7264047074,2,8,2,26,14,-8,7,3
7264062679,19,34,10,27,2,-1,-10,0
7264062679,-9,-10,3,-29,5,1,3,-2
7264070195,-1,-8,-8,21,2,-6,1,0
7264070195,-4,-3,-10,-18,-5,-3,-3,1
7264070824,-5,2,4,9,6,1,0,-3
7264070824,5,1,5,21,-22,-4,1,2
7264084504,-8,0,-2,-16,18,7,3,-2
7264084504,11,3,-15,6,9,4,6,4
7264092727,3,-3,12,19,-9,16,7,4
7264092727,-8,1,-16,3,23,-1,3,-2
7264107076,12,-2,-5,-21,-11,-4,1,4
7264107076,3,-8,-17,-25,-9,-7,-4,2
7264115226,-3,-2,-6,-19,-3,18,2,-2
7264115226,3,2,-8,-16,-5,-4,1,0
7264130176,-2,0,0,20,-10,-7,-1,1
7264130176,-16,-2,12,0,-7,-1,-5,-7
7264130830,-3,-8,-18,-4,9,-1,0,1
7264130830,-6,-7,6,-1,6,-6,-3,-2
7264144495,4,3,-11,-3,-4,-9,-5,-1
7264144495,-2,-7,-1,-6,6,8,1,0
7264152691,-14,-6,2,0,-14,-1,-1,-6
7264152691,-5,-4,11,6,11,8,6,-3
7264167036,-12,-7,-11,-6,-4,-6,-6,-6
7264167036,5,-9,-2,-7,-4,7,-2,2
7264175182,33,-2,-1,-5,-11,-7,8,0
7264175182,-9,8,5,3,10,-8,-3,6
7264189490,-30,-36,-10,-4,-9,10,2,-5
7264189490,-5,-8,2,0,-2,-4,-8,-5
7264197754,-5,-14,-13,-13,-8,-12,8,-1
7264197754,19,3,3,2,1,-3,-3,0
7264204509,3,5,2,5,-2,0,-18,-2
7264204509,4,10,2,-3,1,-4,11,1
7264212707,6,0,-2,-7,-7,1,-9,-1
7264212707,-24,-28,-1,0,-2,1,2,-3
7264226985,8,13,8,6,3,-2,2,3
7264226985,-1,23,10,-1,-5,2,-5,-3
7264235207,-17,-59,-26,-12,-2,-1,-10,-6
7264235207,4,0,-7,-17,-14,-4,-2,0
7264249527,16,3,-6,18,8,3,10,5
7264249527,2,6,6,9,9,10,3,-2
7264257584,2,22,17,17,8,3,27,11
7264257584,-19,-13,-4,-25,1,2,1,-5
7264264531,2,-11,-1,24,-3,0,-6,-2
7264264531,21,34,1,-20,-11,-7,-2,3
7264280936,-5,17,-5,-10,-6,-4,-7,-4
7264280936,-34,-12,-15,13,7,-2,0,-1
7264286956,9,17,10,-3,-6,0,2,1
7264286956,-4,-18,3,-3,-7,-8,-8,-4
7264296059,-3,28,-35,-21,8,5,-1,1
7264296059,22,-32,6,4,0,1,-3,-1
7264309495,32,108,33,5,-4,-3,-3,5
7264309495,-41,-85,-30,0,5,1,2,-5
7264318348,8,15,13,9,3,8,-2,3
7264318348,3,12,13,-19,-6,0,7,1
7264324559,-9,-63,-24,21,15,2,-1,-1
7264324559,2,42,22,4,-5,-6,-3,-2
7264340918,-15,-10,-7,-27,-13,-5,-6,-5
7264340918,0,-12,7,29,11,2,-3,-3
7264347079,11,43,0,-34,-12,-5,1,6
7264347079,-21,-114,-53,-39,-11,-6,-8,-11
7264361939,-5,-3,2,51,-1,-12,-11,-6
7264361939,23,54,10,20,12,9,2,6
7264369515,-10,-11,-1,-10,4,2,4,-2
7264369515,16,49,17,-5,-7,-7,0,7
7264378366,-31,-25,-6,5,5,7,-3,-8
7264378366,12,-9,1,15,3,-8,-1,0
7264392071,-16,11,-7,-15,-9,-4,-5,-4
7264392071,-7,7,-10,-21,-7,3,1,-2
7264400978,-1,-11,14,6,10,4,1,1
7264400978,15,27,2,5,7,-7,-6,-2
7264406898,-22,-28,-3,11,-30,-14,-1,-5
7264406898,7,9,-5,-12,9,14,2,6
7264415920,-1,-10,10,-1,6,-1,1,-1
7264415920,-13,-17,-12,23,20,12,0,-6
7264429517,5,-3,-5,-17,-10,-22,-7,-2
7264429517,3,-11,2,-5,-35,10,1,-1
7264438393,1,-9,2,14,22,-1,0,-2
7264438393,-15,-14,-16,-20,-3,6,6,-1
7264451987,1,-28,-1,-12,2,0,-6,-8
7264451987,2,24,16,27,6,-7,-5,-4
7264460915,-3,-11,-20,-39,-16,-2,0,2
7264460915,11,14,12,-9,-12,-11,-4,0
7264467077,-5,-22,-12,7,11,7,2,1
7264467077,-5,4,-1,14,9,5,2,-4
7264476015,10,12,-7,0,-18,-4,-3,1
7264476015,-14,-26,-2,-9,-4,-7,-3,-4
7264489467,-11,-27,-17,-25,-6,-4,0,-5
7264489467,-3,-4,1,10,18,11,8,-3
7264498364,17,37,-9,-14,-7,-23,-21,-3
7264498364,-6,9,9,35,-17,4,-26,3
7264512083,-4,11,-3,13,13,-9,10,-2
7264512083,1,-4,-8,11,3,-3,-2,-3
7264520837,2,-2,-20,-32,-9,2,-1,7
7264520837,0,0,1,-5,-11,-9,-11,-8
7264527022,10,31,13,-1,8,5,-2,-2
7264527022,-9,-4,-9,8,5,-16,-8,0
7264535988,-8,-8,24,19,7,19,14,5
7264535988,9,31,-3,-13,-7,-6,-3,2
7264549511,7,6,2,11,8,5,9,8
7264549511,-2,29,12,-3,-3,-10,0,-7
7264558360,-9,-2,9,-5,-10,5,-13,-5
7264558360,2,7,-4,-12,-3,-16,7,2
7264572002,-4,-5,2,6,5,12,15,0
7264572002,2,-14,-4,-2,-1,-3,-12,-1
7264589013,16,-11,5,2,-4,-10,-13,4
7264589013,2,-3,3,5,13,35,14,-3
7264590065,-36,-39,-2,-2,-5,-2,-4,-13
7264590065,6,-25,-5,-2,0,-10,-35,12
7264595951,-5,1,-1,1,-4,-6,8,-5
7264595951,14,4,-4,-8,-2,-5,6,4
7264609367,9,12,-2,-7,-1,2,8,2
7264609367,-6,13,2,-4,-1,4,5,-4
7264618360,6,6,0,2,-2,-9,-9,-1
7264618360,-5,-10,-5,-4,1,2,2,0
7264633332,-7,-25,-3,-1,-5,3,-14,-1
7264633332,-4,-8,2,2,0,-4,8,-1
7264634823,5,2,5,4,2,4,11,1
7264634823,13,-9,-2,-3,-1,-4,8,1
7264646990,-12,2,1,3,-3,-4,-14,1
7264646990,-12,2,1,-1,0,4,11,-2
7264655915,-12,-9,-6,-8,0,2,5,-3
7264655915,-11,-11,-5,-9,-3,-12,-9,-6
7264669503,20,68,12,1,-2,10,0,2
7264669503,-27,-36,-9,12,4,4,6,1
7264678360,-7,-14,5,11,-11,-9,3,-9
7264678360,28,82,0,-14,-7,-2,-24,12
7264693315,24,49,19,-11,2,-6,-6,-1
7264693315,-52,-13,-22,40,5,3,8,-12
7264694796,27,67,4,-33,13,7,15,16
7264694796,-73,-113,-29,-6,7,-4,-8,-29
7264706941,2,89,0,2,-22,-7,1,-1
7264706941,43,66,20,-14,-1,0,5,15
7264715939,-34,-107,-56,-9,-19,-21,-21,-16
7264715939,7,-73,31,3,-7,0,3,2
7264729448,2,14,-25,14,20,8,1,-1
7264729448,8,19,21,58,-10,-7,-8,-7
7264738363,-32,-47,-14,-53,4,-1,-5,-9
7264738363,-12,4,-13,-17,-16,-2,4,3
7264753361,-14,-56,-33,-24,8,2,1,-6
7264753361,18,43,4,-23,0,4,0,12
7264754949,44,29,34,44,8,4,2,3
7264754949,-17,11,7,4,-8,-2,1,3
7264767070,1,-14,-1,-23,-6,-8,-7,-1
7264767070,30,9,15,26,11,2,4,5
7264775915,-22,13,-9,-13,-8,1,-2,-4
7264775915,0,39,5,16,-1,-9,-2,-5
7264789492,-1,-18,-10,5,2,11,3,4
7264789492,20,-5,-8,-25,-5,-15,-6,-1
7264798333,-7,10,13,24,-17,3,-4,-7
7264798333,-5,36,-4,-2,2,-3,5,2
7264813324,-2,-37,-8,21,9,7,6,2
7264813324,-13,-25,-1,-7,12,6,4,-4
7264814789,15,8,-8,23,0,7,1,8
7264814789,22,3,0,-13,8,7,1,1
7264826872,-10,-34,11,17,7,-5,11,0
7264826872,-5,-28,-4,-32,-29,-10,0,-7
7264835940,-1,-3,-5,0,-6,0,-3,0
7264835940,5,0,11,16,4,-10,3,-2
7264849456,-7,-38,-14,-27,-14,-1,-7,-4
7264849456,-3,-11,-18,-24,9,10,14,1
7264858372,9,13,14,2,10,4,5,2
7264858372,2,-8,-9,-1,-1,9,-5,2
7264871818,-11,-14,11,2,-5,-9,-5,-4
7264871818,6,0,5,-13,-13,-9,-4,2
7264881059,-13,5,-3,-6,-7,-4,-1,-4
7264881059,17,20,3,10,4,0,1,1
7264886956,8,7,2,-3,-7,-7,-2,3
7264886956,-4,3,1,-6,7,3,-3,-4
7264895967,-1,3,2,-15,2,-1,1,1
7264895967,1,14,-13,-1,0,-2,0,-3
7264909425,-1,4,13,2,0,-1,-7,-7
7264909425,-7,-15,-4,5,-2,-1,-1,-4
7264918392,0,-2,3,7,10,1,-2,3
7264918392,-1,-2,-5,-8,-7,-4,-1,0
7264933300,4,0,6,-6,-9,-13,5,1
7264933300,10,0,-4,1,3,13,-5,5
7264934837,-10,-4,1,13,4,2,-2,-5
7264934837,-5,-9,-4,-7,-1,-2,5,-3
7264947038,9,1,3,7,3,-4,9,-6
7264947038,-14,-3,-5,-2,-6,-15,-30,3
7264955951,1,0,-1,-4,-5,-13,13,-2
7264955951,3,-2,-3,-5,-5,0,-13,1
7264969482,-1,-3,2,-4,-2,9,8,-3
7264969482,-4,-1,-5,-6,-1,-5,-5,-7
7264978342,-1,6,5,0,-1,-9,-6,2
7264978342,4,1,-3,0,4,11,3,4
7264993221,-3,3,1,7,0,2,-7,1
7264993221,-1,-8,-4,1,0,5,-9,-2
7264994775,-19,-1,3,-6,-6,-4,19,-2
7264994775,4,-6,-1,2,3,-3,10,2
7265007010,3,-10,-7,-13,-4,-5,-11,1
7265007010,3,-4,2,1,1,6,2,0
7265015915,5,0,-1,0,4,-3,-3,-2
7265015915,0,-1,2,0,-1,-3,0,0
7265029472,12,-3,-1,-2,-3,1,-5,3
7265029472,-7,-1,1,3,0,-4,4,-2
7265038364,4,1,1,3,0,7,-2,2
7265038364,-16,-9,0,-1,-1,0,-2,-3
7265053335,-1,-1,-3,4,1,-5,-3,1
7265053335,-8,10,-1,-9,-4,2,4,-6
7265054817,0,0,-1,17,2,2,-8,-2
7265054817,-5,3,5,-9,-7,-10,0,1
7265075804,-8,-6,-9,2,-3,12,1,-2
7265075804,24,16,-13,-6,-3,-8,3,2
7265077450,-10,-17,-10,2,1,0,-5,-1
7265077450,-3,-1,6,12,2,7,4,-2
7265089456,-1,14,6,8,4,-4,-7,-5
7265089456,0,23,3,-6,5,3,10,10
7265098367,13,-14,3,8,7,-2,-6,-1
7265098367,-3,-2,7,11,-4,-5,-1,-4
7265113317,1,22,6,-12,-9,-1,-3,2
7265113317,-19,-64,-14,-13,2,-1,0,-3
7265114941,7,8,2,6,-6,-2,-4,-1
7265114941,28,15,2,-4,-10,0,-1,2
7265126957,4,-7,30,40,19,7,8,3
7265126957,-2,-7,-19,-29,-1,1,7,-5
7265135925,17,43,9,-3,-10,-5,-10,5
7265135925,-31,-20,-42,-17,8,0,-1,-14
7265149353,15,22,3,-4,-8,-6,-4,6
7265149353,-35,-47,12,23,4,-2,-1,-8
7265164431,18,-2,3,-3,3,6,6,2
7265164431,-14,-9,5,4,-10,-5,-4,-2
7265172658,-6,21,-8,-15,-2,-1,-1,-3
7265172658,20,-2,1,11,-2,-1,11,1
7265179358,-25,-12,-13,-30,-5,-11,-7,2
7265179358,10,-24,1,11,18,19,1,6
7265186953,-15,-26,-19,-11,-1,9,2,-2
7265186953,10,39,18,3,-15,-14,-17,-5
7265195938,3,2,1,-1,-7,-12,2,0
7265195938,9,-14,-9,2,4,12,1,3
7265209431,-22,3,-1,6,7,0,0,-2
7265209431,19,20,-6,-23,-8,-3,4,1
7265218364,-3,7,17,43,30,25,10,-4
7265218364,-13,13,-11,-45,-8,-17,-12,-4
7265232673,5,-28,0,-1,1,11,5,2
7265232673,-4,0,2,26,-3,-7,-1,1
7265239482,-9,-18,-15,-37,-12,-10,-8,-3
7265239482,1,3,4,-2,5,2,6,2
7265246850,2,-12,2,1,-8,-4,0,-3
7265246850,3,14,1,41,7,0,0,2
7265255917,-2,1,2,-8,5,7,-2,-3
7265255917,-12,-21,23,-1,1,12,8,-7
7265269481,0,-6,-14,-7,-6,-7,1,2
7265269481,0,12,-17,-45,-1,2,-3,-2
7265278343,4,2,-2,22,8,16,8,0
7265278343,-13,-3,6,5,-30,-17,-7,-6
7265292643,-21,-36,-22,-16,12,5,0,-7
7265292643,7,-12,-1,-7,12,8,0,1
7265299487,-1,0,-15,-42,-22,-13,-7,-1
7265299487,10,7,2,30,21,8,9,6
7265315806,-6,14,19,15,-13,-15,-16,-9
7265315806,-2,-6,-9,-7,-9,-6,-3,-1
7265317298,-3,-8,-2,-8,-3,1,4,-1
7265317298,5,15,1,23,8,1,0,4
7265329525,1,-2,5,0,-3,-13,-5,0
7265329525,-3,41,22,15,5,5,4,-5
7265338328,-5,8,2,10,-6,-6,-6,0
7265338328,0,7,-5,-17,-5,-11,-5,-3
7265352634,13,26,-3,5,2,-7,-4,1
7265352634,-17,1,-11,-11,-3,11,6,-7
7265359427,-5,7,-5,-4,-3,-21,1,0
7265359427,3,13,-1,-1,-5,21,-27,-5
7265375861,9,-12,1,-3,1,-5,-2,3
7265375861,-16,-22,4,10,2,-4,2,-1
7265377318,-3,-22,-2,2,-2,-11,-22,-4
7265377318,3,-7,4,-7,0,15,39,5
7265389412,-2,-25,-5,-1,-4,-6,-31,-3
7265389412,-3,-14,0,-3,-2,-4,15,9
7265398320,11,7,0,-1,-5,2,13,-7
7265398320,-2,11,-4,-2,-1,-15,-14,-1
7265412582,-11,2,-3,-5,0,5,19,-1
7265412582,28,6,0,1,-3,-6,0,-2
7265419413,-6,-6,-3,-1,2,3,0,1
7265419413,-6,-12,-5,-2,0,-7,-30,-3
7265435797,0,-5,-5,-3,0,7,10,3
7265435797,-7,-3,1,-2,-6,-8,-13,-3
7265437270,-7,-8,1,4,2,-6,-2,-3
7265437270,1,-14,-8,-2,1,18,-6,-5
7265449934,-19,5,0,-1,-8,-13,2,-3
7265449934,12,9,8,9,-2,4,-2,3
7265458363,21,-5,-2,-5,6,12,-5,4
7265458363,3,28,10,9,-4,-16,12,1
7265472682,11,16,-2,1,-3,-1,-5,-1
7265472682,-7,-12,-6,-1,-2,0,1,-7
7265479397,-17,35,7,14,3,13,5,-3
7265479397,-2,25,8,-4,5,-14,-2,5
7265495729,-14,-41,-9,-28,6,8,8,-3
7265495729,-1,-6,34,30,13,10,-10,0
7265497337,26,-2,-29,-15,-7,-6,5,9
7265497337,-20,-54,-13,-26,-3,-11,-3,-15
7265509420,38,66,38,41,8,4,8,18
7265509420,-17,-105,-13,-11,-11,-10,-12,2
7265518335,16,89,65,22,13,2,7,-1
7265518335,-21,29,-35,-35,-10,3,5,1
7265532657,2,-60,-24,-4,-6,1,1,-9
7265532657,-6,79,-5,-16,8,4,0,-1
7265539429,19,14,-13,7,5,1,-14,-1
7265539429,-13,-24,12,-1,-9,-10,-2,6
7265555806,2,5,2,-6,-18,-6,-5,2
7265555806,10,-20,-18,16,3,-2,4,-6
7265557296,-10,-20,2,-12,1,0,-4,-1
7265557296,-8,19,10,8,5,2,2,1
7265569390,-8,2,-28,-34,-13,-2,-6,-4
7265569390,-2,-1,13,14,-20,-8,-2,-1
7265578293,11,16,11,24,3,5,-5,1
7265578293,-4,-22,-29,-28,-11,-16,10,-1
7265592651,-3,8,19,23,29,32,8,3
7265592651,6,17,-11,-7,-1,-9,-19,-5
7265599511,-9,-38,-7,-16,-5,-18,-8,-2
7265599511,16,14,7,13,-8,15,9,-3
7265615668,-11,-17,-11,-19,-6,-26,-6,-7
7265615668,-8,15,2,-7,1,10,2,-2
7265617287,-20,-28,-17,-16,-15,-2,-12,-4
7265617287,27,-10,11,14,19,5,18,7
7265629456,3,17,-5,-3,-11,-9,-2,-2
7265629456,0,-7,0,-4,28,-9,-6,0
7265638323,-13,-23,9,14,15,11,14,-6
7265638323,-4,-5,-3,-6,-3,-3,-9,-8
7265652602,12,20,-13,2,-4,-3,-4,-4
7265652602,-26,-21,7,8,-1,-10,-3,-8
7265659484,-7,-19,-16,-11,-19,-3,2,0
7265659484,16,20,-7,-4,4,-21,-15,-2
7265675819,-33,-38,24,-18,6,17,3,-13
7265675819,5,8,-8,-4,-20,-2,1,0
7265677319,10,27,-10,3,11,-5,-5,-1
7265677319,-4,-3,-25,-22,-10,2,-4,-3
7265689464,3,6,-9,-2,-14,-18,-8,-1
7265689464,3,18,-5,-9,3,6,6,3
7265698338,-18,-11,17,14,-10,2,-2,-7
7265698338,18,20,1,7,4,6,7,7
7265712499,1,7,-6,-1,1,1,-1,2
7265712499,5,11,5,10,14,15,7,6
7265719441,-4,-22,-23,-35,-15,-5,2,3
7265719441,2,3,16,34,5,-4,-3,0
7265735717,7,16,10,-2,-1,-15,-7,1
7265735717,1,-11,6,6,3,14,7,2
7265737288,0,-7,-12,-4,-4,15,-7,2
7265737288,-2,-5,1,-1,4,3,0,0
7265749489,8,10,1,13,-1,-7,-3,3
7265749489,3,19,6,-7,-14,-22,-16,-2
7265758318,-4,-3,-5,-7,-4,5,17,3
7265758318,-6,-27,2,3,-2,-7,-10,-5
7265772676,10,-8,1,16,12,-2,16,3
7265772676,-16,-9,-6,-9,1,16,-29,1
7265779413,14,-16,6,1,3,3,16,-1
7265779413,-4,2,10,8,-10,-10,-6,-1
7265795815,-28,-6,-6,-5,-6,-9,-6,-4
7265795815,3,-12,-6,-10,-1,1,3,-3
7265797284,-3,2,-2,1,-3,-10,-2,-3
7265797284,12,12,7,5,-2,-3,15,-3
7265809433,4,1,-5,-4,-1,16,-6,-5
7265809433,-12,5,-8,-6,-7,-13,-3,2
7265818317,5,0,3,4,-1,-5,-20,0
7265818317,4,-3,-4,-6,-4,9,18,3
7265832575,-11,-10,-1,-4,0,27,4,-2
7265832575,4,-2,-4,-2,-4,-6,11,3
7265839404,-9,1,0,1,2,-12,14,-3
7265839404,1,-7,4,0,0,-3,-15,0
7265855784,12,7,-3,1,0,-10,-12,0
7265855784,-14,-1,-5,-5,-5,4,7,-7
7265857300,-13,-3,2,3,2,-1,-3,-3
7265857300,15,11,2,3,2,4,-16,4
7265869443,-11,16,7,8,1,-1,4,-1
7265869443,-16,-31,-12,-13,-12,-12,-2,-14
7265878286,-8,-17,-15,-20,-6,-4,-4,0
7265878286,-9,19,-1,13,2,3,-2,0
7265892649,27,63,21,32,0,0,4,-1
7265892649,-10,-59,2,0,12,2,-4,-3
7265899362,12,1,-23,-12,-2,-2,-4,-4
7265899362,-40,13,4,-9,-23,-16,-9,-13
7265915712,-23,-44,-59,-43,0,-2,-7,4
7265915712,41,126,49,58,-2,2,7,2
7265917271,2,-16,-26,-67,5,9,1,-2
7265917271,23,-25,7,12,5,-1,15,8
7265929409,-14,53,30,25,-1,-6,-23,-5
7265929409,21,2,-25,-28,-15,-8,-3,3
7265945757,-13,-54,6,13,6,3,1,0
7265945757,-4,1,3,-11,0,2,-3,1
7265952557,26,-1,9,16,-2,4,10,2
7265952557,-12,-7,-18,-3,4,0,-1,3
7265959406,14,87,28,16,-4,-5,-11,-4
7265959406,-22,-49,-18,-9,-5,-3,-1,-2
7265976236,-18,-46,-16,-8,-3,-3,8,-6
7265976236,7,-10,14,-1,3,-1,-24,-15
7265977765,-1,11,-4,-7,-8,-1,9,9
7265977765,15,2,9,6,-10,-1,-8,2
7265997443,-4,9,-12,1,21,-4,7,-3
7265997443,-13,3,-7,-14,-3,6,1,-1
7266005824,-25,1,11,25,2,-2,-4,-3
7266005824,21,-13,-5,10,8,13,0,-2
7266012643,16,-20,11,-7,-4,-9,-12,8
7266012643,3,-15,-8,-19,-18,-10,8,-5
7266019444,-14,-22,-4,0,3,15,2,2
7266019444,-3,-4,-3,10,10,-4,-1,-3
7266035816,3,-15,0,4,3,-3,-3,-1
7266035816,-4,-2,5,2,6,-1,-5,-1
7266037360,7,0,6,13,-21,-13,-4,-4
7266037360,-18,9,-1,-27,-3,12,4,-6
7266049438,24,10,0,1,0,5,5,9
7266049438,-12,-5,-14,26,15,-1,5,2
7266058342,7,19,-10,-32,6,1,2,1
7266058342,11,12,0,26,16,-4,0,5
7266072592,10,-4,21,41,-26,-4,-6,-6
7266072592,-23,-1,-34,-35,7,-2,2,-2
7266079403,8,-17,-5,16,-2,-3,2,1
7266079403,-19,1,-14,-22,1,7,-3,-6
7266095128,-12,-13,-4,-12,-4,-4,1,-4
7266095128,20,18,28,36,1,0,4,7
7266101825,-6,-19,-38,-64,-3,7,3,0
7266101825,4,-4,15,1,-1,-11,-6,-3
7266118226,1,7,-21,-12,1,0,-1,1
7266118226,-9,-16,17,8,-7,4,6,-1
7266119740,-1,5,14,21,0,-10,-12,-3
7266119740,7,6,-18,-19,-10,0,11,3
7266131933,2,8,-5,-3,5,-11,0,3
7266131933,-2,-6,-10,-19,-10,9,-1,-1
7266140812,2,2,10,35,5,-4,-1,2
7266140812,-15,-6,6,-1,-1,-5,-12,-7
7266155137,-12,-4,-5,-11,-1,1,0,-4
7266155137,14,5,-12,-16,-4,-14,9,-1
7266161863,-7,-7,15,11,5,6,-13,4
7266161863,-17,-4,-1,-6,-7,0,-12,-11
7266178302,3,5,1,-12,-1,-4,-6,1
7266178302,-6,4,-1,-6,-6,-9,-7,-5
7266179772,0,7,1,5,-2,3,20,-6
7266179772,-3,1,-3,-2,-8,-9,18,-1
7266191906,-11,-40,0,-6,1,-9,23,3
7266191906,5,-32,0,-7,-6,4,-7,-1
7266200803,2,-15,2,7,-3,-9,15,-1
7266200803,-17,-10,-5,-3,-1,-5,-10,-1
7266215020,5,-4,5,-6,-4,-5,-7,-7
7266215020,-12,-2,-1,0,1,3,0,-1
7266221894,4,5,3,4,-1,-9,-12,0
7266221894,27,-4,0,5,4,8,1,10
7266238258,-17,-10,-3,-5,-3,2,-2,-2
7266238258,10,2,1,2,0,-12,-8,-1
7266239744,-1,-5,0,4,0,25,-9,-1
7266239744,4,3,-1,1,-3,-18,-2,2
7266251933,-11,3,-1,-4,-3,17,-4,-5
7266251933,25,12,-3,-2,-1,-1,11,6
7266260850,-14,5,5,2,-1,6,5,-3
7266260850,-28,5,-3,-2,-2,-4,-9,-9
7266274859,21,7,0,-6,-3,-1,3,3
7266274859,20,3,7,5,1,0,6,2
7266283300,-29,-18,-9,1,-6,-14,-21,-10
7266283300,9,52,15,2,1,6,8,3
7266298211,-13,-35,-25,-23,0,8,-4,2
7266298211,4,12,5,20,-2,-4,-5,0
7266299775,5,-63,7,15,3,-2,1,0
7266299775,-8,67,3,-32,-19,-8,-14,-8
7266311793,3,-78,-1,-21,3,4,-5,-10
7266311793,9,12,-43,-1,15,15,11,9
7266320791,-15,53,4,15,-8,-10,-1,2
7266320791,-1,-29,-18,-34,-4,-2,-1,-3
7266335096,-1,44,7,34,-14,-4,-5,6
7266335096,-22,-25,-36,-46,-4,-2,-12,-14
7266341848,-6,28,20,24,23,9,4,-3
7266341848,38,-45,3,0,-3,2,-2,12
7266358257,10,81,23,34,-1,0,-11,-1
7266358257,-20,-74,-2,20,2,-1,17,-2
7266359806,6,45,-3,-23,-14,-14,9,0
7266359806,6,-4,-10,8,7,9,11,2
7266371931,-4,-1,5,-4,7,0,-17,-2
7266371931,-4,9,21,16,3,-12,-5,-4
7266380765,36,23,9,22,-22,6,-5,12
7266380765,-23,7,2,8,19,8,-9,-3
7266395101,-28,12,-33,-56,-6,0,12,-8
7266395101,7,55,17,12,-3,2,-8,2
7266401821,-3,-78,-5,-5,-2,-14,-6,1
7266401821,6,37,0,-9,-11,-10,-6,-4
7266418308,-21,-8,10,26,-6,-3,-2,-5
7266418308,3,-18,-10,-32,2,1,2,4
7266419795,26,-46,-4,-23,9,-4,-5,6
7266419795,-19,-46,1,23,6,8,-1,-11
7266431926,5,7,9,-3,11,3,22,3
7266431926,0,-12,9,14,10,13,9,1
7266440832,-11,10,-2,-4,-8,-11,3,-5
7266440832,3,-3,3,20,12,11,3,6
7266455064,14,6,-6,0,-7,-3,-12,-2
7266455064,-6,-11,-1,-19,-15,-9,-3,0
7266461962,-12,16,4,-1,-1,-1,-8,-11
7266461962,-17,-38,6,-2,-11,1,4,-6
7266478182,-2,-25,-2,-21,-3,-1,-1,-3
7266478182,6,29,-1,-8,0,1,7,4
7266479746,-7,19,-2,-26,-2,0,1,-5
7266479746,13,6,-19,20,2,-3,-1,2
7266491931,8,-4,-3,2,-3,0,1,1
7266491931,-30,-22,-2,-5,-10,-4,-11,-10
7266500770,4,13,-8,-4,6,-1,2,1
7266500770,7,6,2,11,-4,-9,-1,-1
7266515065,7,3,1,-8,3,0,3,4
7266515065,-3,8,2,20,-7,-4,-6,0
7266521877,4,1,-5,4,6,4,-2,2
7266521877,-9,-14,-8,-26,-2,-5,-2,-2
7266538316,-4,-9,-1,8,-4,-6,-8,1
7266538316,2,4,5,2,-1,-6,-10,2
7266539787,5,6,7,14,0,15,8,1
7266539787,2,0,2,-6,-3,-3,1,2
7266551816,-9,-2,-6,-4,1,-3,-2,-4
7266551816,8,8,1,1,2,6,1,2
7266560792,-1,-4,-2,-3,-3,-7,-6,-4
7266560792,-7,-7,-17,-7,-2,-7,-6,0
7266575096,-8,-18,-6,2,0,3,-1,-3
7266575096,-8,1,-2,-6,-5,-2,-1,-2
7266581904,1,-2,1,3,1,-3,-3,0
7266581904,5,1,5,-3,-1,3,2,1
7266598194,3,4,8,6,2,-4,5,0
7266598194,1,-4,-1,4,1,2,-6,1
7266599766,9,13,-8,-10,-4,-17,15,-3
7266599766,0,-5,2,1,-7,14,-19,2
7266611936,-13,-14,-12,-7,-2,1,1,-2
7266611936,-16,-5,0,-2,3,8,2,-3
7266620740,-4,-7,-6,-2,-2,-5,-5,-2
7266620740,20,7,6,1,0,-8,7,4
7266635012,-5,0,1,3,-2,-5,-7,-7
7266635012,0,-5,2,-4,-2,-1,1,-1
7266641918,-5,-8,-9,-3,-1,4,-12,-1
7266641918,17,6,3,1,0,-1,-5,4
7266658250,11,4,1,-1,1,6,5,3
7266658250,-11,6,3,-2,-3,-3,2,-2
7266659711,-16,-5,0,-2,0,1,-3,-2
7266659711,2,-5,1,7,1,-2,4,-1
7266671793,8,3,-3,-5,-1,-15,2,-4
7266671793,-23,-6,-1,-2,1,8,-4,-3
7266680784,30,-1,-2,-5,-1,4,2,2
7266680784,-16,3,5,3,-2,-7,0,-7
7266695100,18,-3,7,9,-1,3,3,4
7266695100,-9,14,-7,0,-1,-6,-2,-1
7266701805,-15,-13,-12,-14,-4,2,-5,-2
7266701805,6,-33,-7,-2,-3,-4,2,0
7266718267,-18,9,16,17,1,1,-2,-3
7266718267,14,8,3,-17,10,4,-1,2
7266719769,-8,10,-14,4,10,6,3,-6
7266719769,-3,52,0,-9,-5,-5,3,-1
7266731926,-25,-87,-9,-2,-5,-6,-11,-2
7266731926,29,33,19,22,-6,-3,2,5
7266740767,-34,-46,5,-2,-3,-4,-8,-4
7266740767,15,48,-26,-50,-9,-2,1,-5
7266755096,-2,-4,5,27,1,-1,1,10
7266755096,1,24,-1,-17,0,6,21,-6
7266761872,7,9,8,8,1,0,-23,3
7266761872,9,-14,9,7,-8,-4,2,0
7266778116,-21,-12,-15,-21,-8,-3,1,-3
7266778116,13,-59,-3,7,0,-4,-38,1
7266779744,5,21,15,33,14,12,25,7
7266779744,3,21,0,-5,8,3,-7,-6
7266791843,0,6,-19,-32,-7,-1,0,5
7266791843,3,-15,-9,-1,-9,-10,8,2
7266800819,-2,-7,-13,-15,-15,-11,-27,-15
7266800819,-8,10,16,30,2,3,-4,5
7266815080,-13,23,2,0,6,7,6,-7
7266815080,-6,-11,1,-2,-13,-10,-6,-3
7266821891,33,14,-4,-24,9,11,11,1
7266821891,-24,-35,-1,24,6,-4,9,2
7266838188,4,4,-11,-31,-11,-13,-18,-5
7266838188,-6,-5,3,24,10,9,7,5
7266839729,10,7,10,13,-5,-5,-11,-7
7266839729,-5,-11,-5,-5,-9,-5,-14,-3
7266851834,0,0,8,-5,0,-4,3,-7
7266851834,-6,-6,-5,-4,5,9,26,0
7266860778,-24,7,0,1,6,-7,6,-1
7266860778,0,-9,-8,10,1,10,-2,1
7266875007,15,18,12,22,10,4,18,4
7266875007,2,8,-4,-15,-12,-13,-7,-5
7266881866,-13,8,0,-2,-4,4,2,-1
7266881866,2,8,5,3,10,-12,2,-6
7266898258,-6,-19,-3,-32,-7,-1,-18,-6
7266898258,8,11,18,30,-6,2,6,3
7266899718,2,27,5,-31,28,9,8,7
7266899718,10,3,-5,0,-16,-7,-5,2
7266920068,20,28,18,24,5,1,-5,0
7266920068,-19,-18,16,-21,-3,4,-4,-8
7266920793,-9,-23,-9,2,-19,-13,-2,-5
7266920793,-12,-12,-4,19,13,-1,-1,-5
7266942588,-9,-4,8,-12,1,3,-2,-5
7266942588,12,10,-16,41,-1,1,4,2
7266943267,-4,-13,-32,-41,-18,-15,-11,-5
7266943267,1,-4,-3,-16,-4,0,-1,1
7266957569,7,7,-5,17,0,1,0,3
7266957569,1,10,-7,-10,2,-6,-10,-3
7266958276,1,-7,-1,23,-2,-1,-1,-1
7266958276,-7,-14,-18,-8,-1,-2,-5,0
