timestamp,emg1,emg2,emg3,emg4,emg5,emg6,emg7,emg8
6903465334,-2,10,2,4,4,7,28,0
6903465334,4,-37,-2,-2,-7,-6,-1,6
6903466312,-13,3,-5,-3,-2,-8,22,-20
6903466312,18,25,1,1,2,-8,-20,22
6903467016,-3,-17,0,0,1,24,-16,-18
6903467016,-20,-5,5,2,2,-3,5,-2
6903469958,0,17,-1,0,-1,2,-4,8
6903469958,-8,-12,-4,-3,-3,-8,2,-7
6903477716,-8,-20,0,-2,-3,-10,-5,-2
6903477716,15,31,-1,-1,1,4,6,1
6903485751,25,39,5,-3,-1,-1,-23,4
6903485751,0,-62,-9,-3,0,1,1,-3
6903492665,3,83,-3,-8,-1,-4,-8,1
6903492665,-41,13,-5,6,-2,-2,-8,-18
6903507053,-4,-50,2,-10,-5,1,7,8
6903507053,-5,35,-3,-17,-6,-2,-9,-8
6903518558,29,49,7,7,5,-4,13,16
6903518558,3,-79,9,-4,-5,-5,-12,-7
6903521961,-14,-57,-42,-16,-8,3,-2,-3
6903521961,54,94,18,-4,3,1,16,12
6903538488,-43,-95,-29,-1,11,-5,16,2
6903538488,-29,-30,-20,-20,-12,-1,-25,-7
6903545609,-7,-23,35,51,23,-1,-3,5
6903545609,-13,30,26,7,-12,7,4,-10
6903585209,-4,-42,-31,20,22,0,-14,-7
6903585209,-3,-48,-21,-10,-10,-8,-8,-2
6903586157,-7,35,-5,9,15,9,16,2
6903586157,14,28,-2,-10,-11,-12,-17,-2
6903586858,-5,-9,13,-2,-8,2,27,2
6903586858,-11,27,-1,2,6,8,-35,-2
6903589275,15,10,2,0,2,-1,-16,0
6903589275,-4,2,5,7,7,-2,-11,-2
6903606392,14,21,5,-7,-4,10,20,5
6903606392,18,16,10,10,-11,-7,17,8
6903607325,-18,55,-3,-29,-18,-16,-8,-4
6903607325,3,50,6,-10,-3,4,5,-4
6903620733,19,9,-4,18,15,-2,-15,-3
6903620733,-36,-25,-2,-13,2,8,-2,-4
6903626707,15,-72,5,4,10,10,18,7
6903626707,-4,-60,12,34,-1,-9,5,-1
6903635717,2,-13,-13,-34,-11,-6,-16,-1
6903635717,6,-20,-2,-9,-11,-7,6,-4
6903641765,-3,-36,6,41,-2,4,-9,-1
6903641765,-2,-20,-13,-48,-4,-10,-5,-1
6903658236,-7,-6,-6,-9,-1,-1,6,-3
6903658236,-1,-7,16,30,-21,-8,-2,-5
6903664324,3,-14,-11,-27,2,0,11,-1
6903664324,-1,-7,-15,-21,7,18,9,3
6903680718,-3,3,-6,-10,7,-18,-12,-4
6903680718,-1,-15,6,9,-10,4,10,-1
6903686850,1,-2,-9,-3,-6,-17,-18,-8
6903686850,-34,-57,15,-9,-21,-5,-3,-15
6903695713,-17,-6,5,22,19,7,-3,-3
6903695713,11,28,-12,-13,-6,-5,2,-4
6903701719,-3,-4,3,-3,-3,1,-3,3
6903701719,-15,-12,9,5,0,-1,2,-3
6903718192,-4,-2,9,-12,-15,0,-4,1
6903718192,-9,1,-1,-14,2,-3,8,-9
6903724343,-1,-1,-15,-16,1,10,27,5
6903724343,14,-5,-24,-4,7,4,11,6
6903740682,-4,-13,11,1,-21,-5,-5,0
6903740682,10,21,-1,12,21,9,6,4
6903746719,-15,-22,1,-3,1,-2,-1,-7
6903746719,4,-5,-10,11,-2,10,-4,8
6903755698,5,6,-3,6,7,6,13,1
6903755698,1,-5,1,-2,5,-3,-7,-3
6903761836,-2,10,3,0,-4,-4,-7,-4
6903761836,2,9,2,13,0,-10,-2,-4
6903778223,3,8,1,-8,-10,-7,-43,5
6903778223,5,16,-2,-7,7,3,6,-1
6903784302,-9,2,-4,6,4,4,4,0
6903784302,16,9,-2,5,-5,-2,-8,-1
6903799310,6,11,10,5,0,5,28,2
6903799310,18,9,-3,-1,2,-6,-5,6
6903806813,-23,-19,9,12,5,6,-11,-6
6903806813,3,-4,-5,-4,-1,-2,10,-2
6903815720,0,-5,2,-8,-11,-12,2,-11
6903815720,-15,-34,-4,-4,0,1,-2,11
6903821821,7,-3,4,0,-4,-8,-1,-3
6903821821,-3,10,2,1,3,-8,-10,3
6903838200,3,2,-6,2,1,9,11,2
6903838200,1,-3,-2,0,3,0,19,0
6903844312,-5,7,-5,-6,-5,-4,-16,-11
6903844312,5,3,-2,0,-6,-8,-8,0
6903859338,8,7,2,3,-2,1,-21,11
6903859338,1,-4,-6,-2,2,1,-4,-6
6903866837,17,28,10,-4,-5,-3,3,4
6903866837,-19,21,6,14,3,1,-5,-4
6903875726,-20,-20,-25,-12,-5,-11,1,-9
6903875726,-27,-37,-13,-9,0,10,-5,-10
6903889321,15,82,7,5,-9,3,-18,4
6903889321,-9,-75,-16,-11,-3,-1,1,-3
6903898209,41,96,4,-10,-5,3,4,8
6903898209,-1,-12,22,12,-6,-12,-8,3
6903904332,-31,-73,-33,17,4,-9,2,-18
6903904332,8,93,21,11,2,8,8,-1
6903919324,-19,17,-20,-7,14,5,8,5
6903919324,19,41,3,-5,-7,-7,-11,-4
6903926828,3,20,24,22,16,19,15,11
6903926828,7,50,-6,-13,-6,-8,-7,0
6903935672,11,-41,5,23,5,2,-4,0
6903935672,1,77,9,-12,-22,-9,-19,-4
6903949359,7,-59,3,-14,4,-12,-9,-4
6903949359,4,49,-3,12,13,10,-7,-1
6903958249,0,47,-9,-39,-25,-5,14,0
6903958249,-18,-63,-22,-29,13,11,24,1
6903964257,9,44,36,14,-15,-13,-9,4
6903964257,5,55,-9,-17,19,13,11,3
6903973175,1,12,-1,-29,-9,0,-1,-3
6903973175,14,11,-3,5,-6,-3,3,-2
6903986790,-12,21,14,52,-18,-15,-24,3
6903986790,-2,-67,-52,-85,-13,-23,-24,-10
6903995740,-20,-5,17,55,17,11,49,-2
6903995740,-7,6,-27,-25,7,-4,4,-1
6904009324,12,25,-12,-20,-17,-4,12,0
6904009324,-10,-58,-3,5,-22,-34,-23,-5
6904018207,-15,-46,13,22,19,39,-5,-10
6904018207,7,-12,-1,15,31,-8,3,5
6904024345,3,-13,-5,-7,-11,8,6,-5
6904024345,3,-21,14,45,22,16,23,10
6904033158,-3,-35,-1,-30,-20,-40,-21,-3
6904033158,-1,6,17,33,27,22,-1,-6
6904055673,6,-19,-29,-36,24,10,21,11
6904055673,2,6,18,41,-10,10,19,-3
6904057198,-5,8,3,-11,13,5,-13,-2
6904057198,-18,-32,14,-22,-24,-22,-19,-12
6904069380,-7,-42,-14,6,-4,3,-5,-5
6904069380,3,-13,-19,-23,2,2,2,-2
6904078192,-4,-12,24,9,-1,-4,-8,-5
6904078192,1,5,4,-14,-25,-21,-11,-2
6904084246,0,-11,-20,-22,-12,7,-6,-2
6904084246,-13,1,27,11,3,-2,0,-2
6904093212,4,-4,-22,-34,-12,12,-6,0
6904093212,7,6,3,14,13,10,3,8
6904106852,-1,0,-22,-17,-8,-5,-1,-2
6904106852,-10,-15,-6,-2,-8,5,4,-8
6904115691,14,16,5,26,2,-12,-6,5
6904115691,-2,-6,-9,7,-1,-3,1,5
6904129739,8,29,-3,-16,-10,-24,-12,-9
6904129739,1,-7,4,15,8,2,-42,3
6904138174,-15,-34,-18,6,3,4,3,1
6904138174,8,31,5,10,-2,-2,10,5
6904144292,7,5,-2,-2,3,-19,-14,-3
6904144292,4,16,-2,-15,-9,-3,22,0
6904153185,6,9,9,13,6,6,-20,2
6904153185,-21,-20,-18,-5,-9,4,-17,-10
6904166839,-3,-15,10,-2,12,20,27,-17
6904166839,1,-12,9,1,-5,-7,12,11
6904175675,-8,-10,-6,0,-6,-13,4,7
6904175675,0,-6,6,3,-2,13,0,-7
6904189335,1,-2,-1,-5,1,-8,-7,4
6904189335,2,-5,-1,0,-6,0,15,-7
6904198160,-16,-5,-4,-2,-8,-6,-4,-9
6904198160,32,1,-2,-5,1,-5,-14,6
6904204330,-17,-5,9,0,0,6,5,7
6904204330,-6,3,0,5,1,1,-5,-4
6904219256,-1,-10,-4,-2,0,-14,-10,-6
6904219256,-16,-11,-1,-1,-5,1,1,-7
6904226804,2,-4,3,3,4,7,-9,2
6904226804,19,16,2,-5,0,-1,-7,6
6904235687,14,4,-3,-8,-5,-1,7,-2
6904235687,-15,-36,-11,-2,-9,-15,0,-5
6904249336,5,43,16,30,20,14,4,9
6904249336,-30,-11,-10,-9,-12,-2,-5,-5
6904258211,3,-9,1,1,-2,-1,-8,-10
6904258211,15,47,26,23,3,4,-5,5
6904264302,-8,-49,-22,-27,-1,-4,3,5
6904264302,-25,0,-24,-17,-14,-7,-9,-14
6904279304,23,38,24,0,5,11,18,9
6904279304,-29,2,22,13,-5,-8,5,-5
6904286635,16,-12,-31,-33,-10,-5,-19,-5
6904286635,17,-19,-30,0,7,7,11,4
6904295868,-10,62,8,-19,-11,-8,-13,-11
6904295868,-2,-92,-16,-1,9,13,14,4
6904309192,2,119,25,-1,5,-3,2,2
6904309192,1,-31,23,33,-4,-9,-6,-2
6904318208,-36,-18,-22,10,-7,-5,-3,-4
6904318208,5,-1,-30,-32,-10,-11,9,1
6904324288,22,66,25,4,-9,6,-18,0
6904324288,-4,71,9,53,33,10,5,3
6904339191,-47,-128,-20,-4,-4,-13,-14,-14
6904339191,19,103,29,11,-12,-6,-9,6
6904346767,2,-2,-34,-38,-10,5,2,-2
6904346767,24,14,27,2,9,3,5,5
6904355717,8,77,23,22,26,13,7,7
6904355717,-26,23,-32,-30,-11,-13,-8,-6
6904369214,-20,2,21,41,-15,-14,-7,2
6904369214,8,5,-6,-5,2,6,5,1
6904378281,1,-8,12,26,31,-4,-12,-5
6904378281,23,-15,-10,-15,-20,15,46,10
6904384147,-10,-39,13,4,-4,-1,-1,-9
6904384147,-7,-25,14,6,13,2,-7,4
6904399297,3,-40,-9,15,-6,4,5,-1
6904399297,5,-14,4,-3,11,-7,-2,-3
6904406842,-10,-56,4,-16,-17,-14,-11,-5
6904406842,3,-34,-31,-63,40,8,16,-2
6904415565,-3,-10,-4,-9,-44,-22,-2,-7
6904415565,-1,-3,-17,10,39,28,-4,1
6904429283,-3,-31,-5,0,-32,-6,18,2
6904429283,-5,-4,11,12,3,4,-14,-4
6904438189,5,-12,-21,-15,8,10,12,3
6904438189,-6,-11,11,14,-2,-9,-13,-2
6904444298,-3,-24,-25,16,-9,-17,-10,-9
6904444298,-18,-33,0,7,-2,9,-1,-7
6904459187,21,12,-27,-22,-34,-23,-5,6
6904459187,-9,-3,-13,-55,23,21,2,-7
6904466840,-5,4,-11,9,39,9,2,1
6904466840,8,22,3,0,-24,-20,-10,-3
6904475652,16,31,27,30,-1,5,9,4
6904475652,-8,-17,-7,33,10,-6,-18,2
6904489290,-3,2,5,-7,5,12,24,0
6904489290,-8,11,-5,-30,-21,-15,-32,-4
6904498137,11,22,10,10,10,5,2,4
6904498137,-8,7,7,-27,-35,-8,-20,-13
6904504312,3,-4,6,6,17,-8,4,6
6904504312,7,1,-1,6,-13,2,7,-11
6904519180,2,-5,-5,-8,0,6,-23,13
6904519180,-1,-1,11,15,-6,-13,-38,0
6904526782,-4,-16,-6,-1,8,24,62,-2
6904526782,-1,5,2,0,-1,-9,13,6
6904535670,-5,-5,2,-11,-2,-5,1,-7
6904535670,15,1,3,8,3,2,13,-1
6904549351,-29,-3,8,6,7,2,-3,-1
6904549351,-4,-15,-1,-10,-20,-10,-16,-1
6904558190,6,1,2,-5,6,8,15,-5
6904558190,-4,-5,2,9,3,-4,-13,9
6904572363,4,-11,2,1,-3,8,-16,-2
6904572363,0,-19,2,0,-3,4,9,-2
6904579282,-1,23,-10,-13,-2,-3,-7,-2
6904579282,12,0,-1,4,-1,-6,9,-3
6904595632,7,7,6,-8,-4,-10,-18,6
6904595632,-8,-24,-5,3,-4,-12,0,2
6904597144,-6,-8,8,2,3,18,10,1
6904597144,-7,3,-13,3,-6,-3,-1,-6
6904609300,5,4,-3,5,8,-8,-7,-1
6904609300,4,4,-1,-1,-2,10,7,2
6904618232,-8,2,2,-9,-2,-5,5,-3
6904618232,-1,-2,3,-1,-6,1,6,-6
6904632499,0,8,9,0,-8,-11,-5,2
6904632499,-7,15,-14,5,-1,-6,-11,-6
6904639338,-5,-57,-6,10,13,5,-2,-2
6904639338,7,34,4,-5,11,15,7,10
6904655655,27,8,3,7,-2,5,2,-1
6904655655,-38,14,-17,-29,-11,-4,-7,-9
6904657168,8,-25,0,7,-2,-7,-3,-1
6904657168,-43,18,4,3,-10,-9,4,-12
6904669271,11,-43,-7,10,9,2,-5,3
6904669271,15,11,33,25,-1,3,5,4
6904684194,9,30,-30,-34,-4,-3,-3,7
6904684194,19,-3,6,11,1,-1,26,5
6904692501,-22,-8,-8,0,-4,0,-29,-3
6904692501,-2,-11,-16,-27,-4,-2,-10,-10
6904699220,-21,9,7,13,5,-2,4,-4
6904699220,33,47,18,17,-1,2,0,5
6904715688,-25,-37,-8,-4,6,5,8,-3
6904715688,22,24,1,22,8,4,13,12
6904717137,-3,6,2,7,-15,-6,-10,-7
6904717137,-1,-52,-38,-43,-4,-4,-5,-2
6904729271,-5,57,20,-4,-8,-5,0,-4
6904729271,5,-37,-10,-11,-5,-4,-6,1
6904738165,4,34,-12,-5,-3,-3,-3,-2
6904738165,10,-12,2,27,8,7,8,3
6904752491,5,6,0,-6,-3,-4,-3,-1
6904752491,-5,6,-9,-32,-30,-12,-9,-9
6904759237,-8,-8,5,16,9,4,11,3
6904759237,-16,-16,16,14,10,-1,1,-4
6904775637,2,-4,-8,-15,21,10,-7,4
6904775637,28,34,-3,5,-9,2,4,2
6904777119,-6,-6,-3,-21,-13,-5,-22,-7
6904777119,-30,-31,-9,-13,-27,-10,9,-8
6904789215,5,1,-1,-1,-30,-12,19,-5
6904789215,-7,-7,5,6,19,-1,10,4
6904798173,9,-40,7,16,9,7,0,4
6904798173,0,-1,3,-11,-6,-10,-13,-4
6904812545,-14,-7,6,-33,-22,-4,-4,-12
6904812545,16,-3,4,45,37,5,2,9
6904819367,-1,4,-8,-7,20,15,10,3
6904819367,4,1,2,-2,22,-8,-6,-3
6904835622,4,-2,-3,-41,-46,7,-5,1
6904835622,-1,19,-6,10,-16,-20,-12,1
6904837170,-7,1,18,10,18,-1,5,-7
6904837170,-3,-5,-8,-1,-2,-1,-12,0
6904849161,13,-13,-4,3,4,-2,15,5
6904849161,-3,6,-1,-1,-6,-1,-7,-1
6904858142,-15,10,1,-15,-26,-10,21,-8
6904858142,13,7,1,-10,-4,6,1,11
6904871877,8,-5,-11,27,23,13,-4,2
6904871877,-16,-12,10,-10,-5,8,1,-4
6904880666,5,-12,-11,-6,5,-3,-5,1
6904880666,-11,3,9,-9,-12,-1,-4,-11
6904895652,-3,0,-6,6,14,-1,-4,6
6904895652,4,2,9,10,7,5,19,4
6904897118,10,-1,-7,5,-4,5,5,5
6904897118,-1,13,2,-1,-5,-13,-18,-2
6904909201,-1,-8,-7,13,17,22,17,1
6904909201,-7,-6,3,-5,-1,-6,-5,-7
6904918189,-1,-3,3,-1,-5,-4,-16,0
6904918189,8,-4,1,5,-6,-6,-17,4
6904932513,1,12,1,3,-3,-23,22,-3
6904932513,-12,-14,-8,-14,-8,-14,-16,-8
6904939227,-3,-15,-1,-4,-6,18,-9,1
6904939227,-4,-7,1,6,4,-1,-1,-5
6904955691,5,-11,-4,-1,0,-1,-32,-3
6904955691,-9,-9,2,0,8,15,11,1
6904957146,1,0,0,-6,-13,-32,-8,-5
6904957146,-5,-7,-8,-3,1,26,31,3
6904978122,-5,-4,2,1,-1,-13,-14,-7
6904978122,15,-1,0,0,0,6,12,8
6904979649,-6,1,1,-2,-3,1,-3,2
6904979649,4,0,-2,1,0,-5,-7,-1
6904991785,-14,1,2,3,0,-8,-5,-3
6904991785,-10,-9,-5,-5,-1,7,-3,0
6905000666,6,-5,-6,-10,-9,-10,-9,-2
6905000666,17,5,-3,2,2,4,-20,6
6905015665,-37,-1,-8,-7,-2,-2,-4,-8
6905015665,-21,-2,-4,-7,-6,-11,-8,-7
6905017185,-8,5,9,12,-2,-1,-13,-5
6905017185,9,2,0,-9,4,-1,4,-7
6905029234,12,14,-14,-8,-5,1,-3,0
6905029234,3,2,-7,-13,-6,11,-8,-1
6905038185,-2,-4,-3,-4,-1,-10,15,2
6905038185,-3,12,6,15,5,8,1,-3
6905052372,8,13,10,8,3,2,0,3
6905052372,-1,6,3,-9,-8,-8,-2,-3
6905059285,-2,-2,-12,-9,-7,9,-2,-3
6905059285,5,0,-9,7,-11,-8,-8,-1
6905075631,-7,0,-3,-1,-3,-6,0,3
6905075631,-1,5,24,25,9,10,5,3
6905077143,-8,17,-21,-83,-13,-11,-12,-4
6905077143,-4,14,10,65,13,7,19,9
6905089302,-10,6,-6,-26,31,19,34,4
6905089302,31,-17,6,31,-12,-5,-26,1
6905098132,-16,14,-12,-8,6,-7,-8,-8
6905098132,-17,-33,-3,-24,-16,-2,15,0
6905112460,48,8,23,68,-6,-27,-36,0
6905112460,-71,-13,4,-38,10,7,58,-8
6905119285,35,-8,2,32,8,13,-4,1
6905119285,-21,12,-22,-17,16,-31,0,2
6905134957,-8,12,-1,11,9,58,3,0
6905134957,12,20,5,-5,-9,-12,0,2
6905141818,-5,16,7,34,-27,-9,-17,-6
6905141818,-4,20,-5,-58,-24,-15,9,-2
6905149317,2,-23,-3,-8,-20,-22,-19,-14
6905149317,17,0,-8,29,22,17,-48,10
6905158128,-8,-26,2,-9,9,14,21,-3
6905158128,9,-34,14,26,1,26,8,0
6905172403,-3,-19,-5,-24,-30,-33,2,2
6905172403,-9,-28,-3,16,-1,-23,-23,-8
6905179232,11,2,-8,16,20,7,39,10
6905179232,-2,-13,7,-2,9,5,-24,-3
6905194936,-1,1,-6,-19,2,5,24,-2
6905194936,12,6,-1,9,0,-6,8,-2
6905201658,-10,-9,5,4,-9,-2,-27,-4
6905201658,0,5,-16,-17,-1,-6,9,-3
6905209332,-6,-4,-9,-12,-9,-12,-11,-7
6905209332,10,-1,-10,-3,-9,-8,12,1
6905218148,5,9,2,-5,3,5,-6,2
6905218148,-2,14,3,32,2,4,-6,-2
6905232477,-15,-27,-6,-26,11,2,-1,-3
6905232477,16,17,5,-3,-9,3,8,5
6905239186,-4,-10,8,7,10,-8,-5,-3
6905239186,-9,-7,-6,-21,-5,-14,-27,-6
6905255022,6,5,-4,22,3,10,17,8
6905255022,-12,5,-17,-11,0,-3,-14,-8
6905261707,-4,0,10,6,-1,4,8,1
6905261707,-2,-8,-8,-1,0,-5,-9,-4
6905269259,4,0,0,0,1,-3,-8,2
6905269259,3,-4,-1,-20,-7,-4,3,-1
6905278202,7,1,-1,5,-2,-1,3,2
6905278202,-3,3,-1,-4,-2,-2,4,2
6905292404,-1,2,2,2,-2,-2,-7,-5
6905292404,-12,-6,8,8,9,0,5,0
6905299283,3,-8,-11,-11,-1,-3,0,-2
6905299283,-13,-10,-1,4,2,-6,6,4
6905314830,-8,-3,-1,-8,-2,24,-9,-2
6905314830,8,6,-6,-7,-6,9,-4,0
6905321723,3,7,-3,8,13,-6,11,-4
6905321723,7,-5,0,-5,-2,5,14,4
6905338138,3,17,0,3,-1,-5,5,3
6905338138,6,-2,-3,-11,0,-1,8,-1
6905339606,-18,-10,-1,-5,-9,-2,3,-2
6905339606,7,-6,-2,-8,-6,-2,-1,-7
6905352432,8,-4,0,2,-1,-7,-14,-3
6905352432,-27,-8,-1,-3,1,18,31,2
6905359262,-5,-17,0,-5,-3,-3,-8,-7
6905359262,17,-1,3,4,-1,-5,-8,2
6905374940,2,-11,2,2,4,-6,6,-1
6905374940,12,-11,-4,-6,-4,-10,-9,-2
6905381732,-29,1,2,2,-1,15,-5,0
6905381732,4,2,-4,0,0,7,13,-4
6905398116,9,6,0,-1,-2,-5,0,0
6905398116,-12,11,0,-7,-1,1,-2,1
6905399601,9,3,8,-1,-6,-9,-3,1
6905399601,-5,-4,-10,-2,3,2,-7,-6
6905411701,2,9,5,10,-5,-2,-3,3
6905411701,-14,5,-8,-22,0,-2,-10,-9
6905420670,25,9,12,28,0,-2,2,8
6905420670,1,-8,-4,-3,6,4,-6,2
6905434986,-29,-19,-22,-15,-7,-8,-5,-4
6905434986,17,5,14,19,-9,-6,-4,3
6905441711,-27,13,2,-11,24,10,7,-8
6905441711,18,-16,7,0,-4,3,1,2
6905458137,13,60,27,10,2,-1,-3,2
6905458137,5,-6,-29,-17,3,7,1,-2
6905459616,-14,-15,-8,-16,-24,-13,-3,-5
6905459616,-5,-8,-1,4,4,0,-4,0
6905471875,-13,-37,6,-18,2,0,13,-2
6905471875,12,13,2,25,6,-2,-21,6
6905480641,0,-11,8,18,-10,-8,-13,-5
6905480641,-10,33,-3,-12,-3,-2,-3,-6
6905494945,23,14,2,1,3,2,2,7
6905494945,7,2,19,19,16,9,13,-3
6905501662,32,2,-35,-18,11,8,0,13
6905501662,-26,20,-1,1,-18,-10,-4,-10
6905518117,-30,4,0,13,4,-1,-16,-8
6905518117,-12,-16,-3,-14,-13,-5,-15,1
6905519624,-5,5,7,17,8,-16,-8,-5
6905519624,20,13,0,-17,-7,20,10,1
6905531775,-3,-4,-13,-19,-13,-8,-9,-6
6905531775,-3,-29,-4,11,4,-9,3,-3
6905540646,6,-3,4,-12,-5,-1,-6,0
6905540646,-2,-9,2,-11,13,13,13,1
6905555008,-26,-46,4,34,15,3,22,-1
6905555008,10,16,5,-4,-11,-9,1,-2
6905569289,5,-1,-8,-12,-15,-11,11,1
6905569289,-2,-20,-3,2,0,-11,-1,-4
6905578130,10,-6,-9,-35,3,12,-14,-5
6905578130,7,6,-6,-24,-19,-18,30,11
6905579614,-8,7,12,2,-26,12,-14,-6
6905579614,-6,-18,0,10,18,6,11,5
6905591734,9,23,0,35,-3,-13,-6,-4
6905591734,0,3,-10,-14,7,8,-5,-3
6905600624,-2,12,-5,-12,16,-10,2,-3
6905600624,-6,16,18,4,-23,-12,-19,-5
6905614959,0,-10,3,1,5,-1,-8,0
6905614959,-2,-6,-10,-4,-10,7,-1,-5
6905621710,6,18,-6,-23,-4,-9,-6,1
6905621710,-15,-19,18,25,4,12,-5,0
6905638046,6,16,-7,4,2,-7,-4,0
6905638046,-1,3,1,3,-11,-21,-12,-6
6905639582,-16,-4,24,-20,0,1,3,-6
6905639582,6,-8,-11,-5,9,10,-5,2
6905651734,-3,-4,-2,-5,-2,-2,6,0
6905651734,4,11,-1,9,14,13,-8,4
6905660610,-5,-29,-3,7,-5,2,3,-2
6905660610,2,8,-5,3,-3,-19,8,0
6905675014,1,-1,0,-4,-5,2,-24,1
6905675014,8,3,1,0,1,-2,-2,-1
6905681785,-2,9,-6,6,2,-10,-13,-3
6905681785,-2,-4,-17,-14,-5,5,15,3
6905698137,-5,-7,0,-5,-1,10,5,-4
6905698137,-19,-2,2,-6,-1,-7,-13,-6
6905699623,1,-7,-14,-2,-6,-29,-48,2
6905699623,-5,2,-2,9,7,26,17,0
6905711719,14,5,-3,-5,0,7,28,4
6905711719,-9,-11,4,3,8,29,-2,5
6905720644,-10,-28,-1,4,-5,-6,-9,-5
6905720644,-4,-6,0,-7,-4,-19,-27,-6
6905734989,2,-11,-5,-3,-1,0,7,-7
6905734989,-4,-11,5,-3,-3,5,3,-9
6905741665,13,-10,-6,6,8,-7,15,0
6905741665,-7,1,0,-3,-9,-8,-2,1
6905758085,15,-4,3,-2,-4,-7,-4,1
6905758085,0,-15,-4,-1,0,-7,0,2
6905759600,-27,9,-5,-3,-4,13,11,1
6905759600,9,-5,0,2,2,4,-6,1
6905771701,-3,1,-1,0,-3,-26,-8,-5
6905771701,-15,23,1,-1,-1,5,14,-4
6905780592,-3,-27,-12,-1,-3,10,6,0
6905780592,-9,5,-1,3,-4,-9,-7,-3
6905794943,-6,-31,-9,-18,-3,1,8,6
6905794943,16,94,8,-4,-4,-3,-4,11
6905801778,0,-3,5,21,-1,5,6,-8
6905801778,-26,-89,-40,-22,-4,-14,-11,-9
6905817161,-13,97,-21,-17,-6,8,1,-1
6905817161,-9,-53,-7,-20,14,4,2,-8
6905825666,22,17,10,32,10,11,13,21
6905825666,3,76,61,29,-5,-11,-3,-2
6905831638,10,-21,-42,-51,-28,-9,-20,-3
6905831638,7,-56,-12,-35,7,-7,-11,-10
6905840648,-16,66,-15,-24,-4,5,27,-1
6905840648,21,112,46,63,8,1,-9,7
6905854854,-25,-111,-6,-15,-1,3,-9,-5
6905854854,-20,-8,1,1,-8,2,23,8
6905861740,58,-9,24,71,34,12,23,17
6905861740,-34,-79,-69,-74,-29,-20,-33,-27
6905878112,47,102,52,31,5,4,27,9
6905878112,-15,-22,-7,21,-7,-1,2,-6
6905879618,-13,-15,26,-40,-5,2,-6,6
6905879618,15,23,-31,-11,17,9,12,-4
6905891664,4,-16,6,38,30,7,37,8
6905891664,7,10,13,-38,-17,20,-60,2
6905900651,-19,-5,6,15,-1,-18,4,1
6905900651,19,13,3,-35,-8,25,-52,9
6905914918,-16,1,10,25,2,-6,-3,-5
6905914918,-7,14,-20,-17,-4,-16,-18,-11
6905921765,7,29,9,-1,-7,-17,47,2
6905921765,2,-10,-17,-9,-23,-14,-12,-10
6905938083,-27,-26,2,-9,6,-14,-19,-15
6905938083,4,-9,10,37,-8,39,4,1
6905939618,4,-32,-18,-16,-1,-28,-31,-14
6905939618,-1,-29,5,35,42,28,49,5
6905951741,5,-6,-9,-30,-8,-9,26,5
6905951741,9,10,4,19,-7,-25,11,-3
6905960617,-12,-24,-19,-46,-15,10,-22,-14
6905960617,-2,-22,13,18,1,-8,13,7
6905974817,4,6,6,-2,-21,-2,-45,-6
6905974817,-27,-42,-22,-4,18,-2,12,-3
6905981746,-2,-12,-23,-17,-19,7,-6,-2
6905981746,14,8,2,7,9,0,0,6
6905998108,0,2,8,14,-8,-12,-14,-6
6905998108,3,14,-11,-11,4,4,15,-2
6905999612,2,13,8,15,5,5,-10,0
6905999612,5,18,3,-17,-3,-7,12,3
6906019903,-2,9,8,20,6,10,-1,5
6906019903,9,21,7,15,6,-10,8,3
6906020596,-10,-5,-8,-4,6,11,-1,-5
6906020596,3,-11,-3,-10,-6,-6,-1,-1
6906035592,-5,13,2,4,-7,-5,-18,0
6906035592,-12,-10,7,-4,-10,-13,2,-5
6906041808,5,-1,5,12,19,22,32,1
6906041808,-2,-9,0,3,-1,-7,-24,4
6906057417,5,-6,-8,-1,4,6,5,1
6906057417,7,1,4,4,-5,-6,8,-2
6906058094,-1,0,-11,-17,-15,-24,-34,-7
6906058094,10,5,6,9,-1,3,11,-6
6906079878,-7,2,1,-2,-1,2,-18,2
6906079878,10,4,-3,0,-3,-10,-6,1
6906080592,-5,3,5,4,3,12,-12,-3
6906080592,-8,-3,2,-3,-2,-10,8,5
6906095647,-16,-16,-8,-7,-1,2,-13,-11
6906095647,-4,-9,-3,-1,-1,3,-25,-2
6906101639,10,-5,-2,-5,-7,-3,-6,1
6906101639,-9,0,1,-2,-3,-9,25,-13
6906116728,8,0,-2,0,1,1,27,7
6906116728,-5,2,3,5,3,-8,27,-5
6906124246,3,4,-5,-3,2,16,-40,15
6906124246,-18,-16,-5,-7,-9,1,-18,-6
6906139924,-3,-9,0,3,-4,-9,15,-12
6906139924,6,-6,-9,-9,2,13,21,17
6906140596,2,22,4,-4,-4,0,38,-3
6906140596,11,13,-5,-14,-8,-21,-30,-3
6906155614,4,-14,-5,26,15,10,-15,0
6906155614,-13,16,2,3,-5,-12,-24,-14
6906161669,-8,6,14,3,-4,-1,8,0
6906161669,3,6,0,-3,9,5,-6,0
6906176761,-11,-20,-6,-17,-10,-3,22,-5
6906176761,16,40,15,27,-2,-4,1,2
6906184232,-18,-36,-9,-28,0,-8,-8,-7
6906184232,18,8,-15,-8,-9,1,18,10
6906199899,5,11,15,12,5,11,-10,7
6906199899,-13,-33,-22,-13,0,1,-7,-5
6906200656,-3,5,-8,-10,-15,-7,-15,-8
6906200656,-22,-6,2,-2,-2,1,2,-5
6906215634,6,11,-8,-10,2,1,6,3
6906215634,9,13,33,45,-10,-6,-8,2
6906221653,37,-60,1,1,27,8,21,5
6906221653,5,18,-5,-4,-7,0,9,2
6906236771,-26,-22,5,20,2,-1,1,-1
6906236771,-2,11,-2,-41,-3,2,4,-1
6906244252,-26,3,-11,34,4,-2,-11,-9
6906244252,7,-82,-18,8,7,6,8,-1
6906259862,14,48,2,-14,-1,1,-4,5
6906259862,9,-56,-4,-2,-4,-7,-36,-4
6906260589,-11,49,2,-2,-9,-9,-20,-9
6906260589,2,-6,5,-17,-1,7,25,7
6906275614,19,31,8,18,-5,1,20,9
6906275614,-7,21,6,3,6,1,7,-5
6906281688,-1,1,-14,-8,-11,-20,-8,-10
6906281688,4,28,8,19,8,15,23,6
6906296695,-32,-22,-5,-12,4,7,-3,-6
6906296695,-16,2,-9,-15,0,-5,-7,-2
6906304233,22,-12,6,10,-5,-2,7,5
6906304233,-3,25,19,31,9,4,-7,-5
6906319930,1,-24,-13,-23,0,-4,-10,-2
6906319930,-13,-5,-10,-11,-15,-10,6,-1
6906320561,-9,26,4,-11,-4,6,7,0
6906320561,6,-2,-3,-2,6,-9,-9,4
6906336043,12,22,-3,-4,-5,-11,-16,0
6906336043,-1,-1,4,8,8,17,26,-5
6906349867,-1,-18,0,3,-6,-11,-6,-1
6906349867,-1,-6,13,-15,-12,-11,-15,-7
6906356760,-10,-39,-24,-15,9,14,14,-6
6906356760,10,-7,6,-1,6,-9,-19,14
6906364260,8,-16,-5,8,20,15,11,3
6906364260,-27,-7,-8,13,3,5,6,-1
6906381331,4,15,8,6,-15,-13,-8,-9
6906381331,25,-1,-15,-11,5,7,-1,4
6906382257,-12,-7,1,23,18,2,1,-2
6906382257,-13,-11,14,9,2,1,-9,-5
6906395621,8,14,-7,1,-17,-14,-6,2
6906395621,-3,-14,-7,0,2,6,-5,-6
6906401708,12,22,3,11,-10,-9,1,5
6906401708,-2,6,-1,-7,-3,-5,-1,-5
6906416646,-8,-24,1,-34,-7,1,-12,-3
6906416646,2,6,-9,5,-8,-10,-2,-7
6906424220,-10,-3,-8,-20,0,4,3,-3
6906424220,7,10,-12,12,19,9,5,6
6906439885,7,17,13,20,5,-1,4,0
6906439885,-24,-14,-5,-19,-5,-12,-9,-9
6906440602,-1,-8,-4,-7,-3,6,11,1
6906440602,6,1,-7,-4,-10,-8,7,5
6906455646,4,2,5,7,0,10,3,3
6906455646,2,18,10,20,9,6,11,-1
6906461752,8,5,4,8,-1,10,22,11
6906461752,-6,-11,-21,-26,-22,-39,0,-12
6906476691,-5,-4,-1,3,8,33,-1,-1
6906476691,-9,-1,3,3,-4,-20,-6,-15
6906484219,12,21,10,-6,2,-6,43,16
6906484219,-5,-8,8,1,-3,8,-4,-5
6906499772,-8,-25,-8,-3,-2,-3,38,5
6906499772,5,-10,-5,-4,-2,-15,28,-6
6906500526,4,-22,-2,-5,-4,17,-22,-21
6906500526,10,6,1,-1,1,1,-45,19
6906515565,-13,-7,-4,-3,-3,-17,15,-12
6906515565,3,-14,1,4,7,9,-24,6
6906521797,-24,-12,-2,-4,-8,-15,1,13
6906521797,-12,8,6,0,2,13,-6,-35
6906536637,6,-15,1,-6,-1,-4,-14,5
6906536637,30,4,1,3,-3,0,-8,-1
6906544236,-14,0,0,-3,-3,-5,-21,-4
6906544236,4,2,-1,-2,-2,-5,-1,9
6906559923,14,16,-1,0,3,-3,-5,3
6906559923,-14,29,10,-2,2,9,12,-1
6906560530,37,8,-6,2,-2,-6,-13,-1
6906560530,-59,33,-3,-4,-6,6,30,-4
6906575568,-22,-64,-4,4,0,-9,-29,-7
6906575568,-7,-15,0,7,2,4,-1,7
6906581620,10,-18,-13,-14,-6,6,2,5
6906581620,25,7,29,3,-14,-5,-8,2
6906596740,-24,34,-38,23,24,0,-6,-6
6906596740,34,61,24,-25,-4,2,-8,5
6906604200,-33,-60,-45,-31,-23,-39,-25,-17
6906604200,65,105,63,32,1,41,19,29
6906619939,-45,13,-11,35,23,9,8,-17
6906619939,-35,-47,36,69,-17,7,-13,-5
6906620542,7,87,-22,-39,39,15,11,5
6906620542,-76,-94,-52,-39,-38,-38,-18,-33
6906635599,60,27,43,39,-22,1,-11,22
6906635599,0,77,-10,1,21,3,-1,-12
6906641699,-15,-88,-36,-61,-10,-23,3,-4
6906641699,31,-16,-11,51,19,-20,-23,9
6906656745,-17,-6,5,0,7,35,60,-1
6906656745,-4,-13,28,-61,-20,-34,-38,0
6906664183,-25,23,18,17,-9,-1,10,-13
6906664183,2,-1,-7,-18,1,-42,-39,2
6906679865,-8,-26,-2,-23,5,35,42,-3
6906679865,18,11,15,10,3,0,-34,-1
6906680563,5,23,27,32,-5,8,39,5
6906680563,-11,-10,-18,-28,-3,-7,38,1
6906695617,14,42,19,7,-9,-8,-17,3
6906695617,-16,-3,-38,-30,-14,-4,26,-6
6906701591,4,17,11,0,-4,-8,-28,-3
6906701591,-1,-22,-15,14,-7,15,8,-5
6906716715,10,-16,1,3,12,-19,-21,2
6906716715,3,-31,-26,17,26,17,39,8
6906724216,-13,-39,0,6,-8,12,-25,-5
6906724216,5,-2,20,-19,-21,16,6,-5
6906739832,-4,-23,-7,-9,13,-14,8,-4
6906739832,-7,-28,-19,-5,-12,-2,-9,6
6906740623,18,36,10,35,10,3,-12,2
6906740623,3,2,-11,-14,3,5,5,-4
6906755612,-4,-9,1,-18,-22,-28,-51,-5
6906755612,-3,-11,-11,-9,-5,8,5,1
6906761738,-12,10,-1,22,2,-8,-1,-8
6906761738,-8,-7,-12,-23,-14,-7,-13,-3
6906776750,1,5,-9,-33,-15,-7,-26,-3
6906776750,13,19,7,43,27,-3,-5,9
6906784239,-5,19,4,-27,-11,8,-13,-7
6906784239,-15,-29,-1,-3,12,12,-7,-6
6906799860,12,18,6,17,-15,-22,11,5
6906799860,4,-6,-2,-19,1,10,6,0
6906800518,3,11,17,21,4,9,5,1
6906800518,-1,-10,-13,-10,5,-6,2,2
6906815617,-9,-3,-14,-21,-18,-24,-13,-14
6906815617,-4,-2,-1,-2,-3,5,-11,1
6906821666,17,7,1,13,11,11,26,6
6906821666,19,14,9,13,15,9,15,8
6906836736,-3,-2,-4,-11,-2,-4,-30,-2
6906836736,-31,-32,-10,-4,-9,2,44,-7
6906844083,-21,-17,-3,-2,3,-5,20,4
6906844083,7,-7,0,7,-2,-4,-42,-8
6906859885,13,5,4,-3,2,21,3,0
6906859885,9,-8,-12,-6,-3,-7,-33,-2
6906860536,1,4,6,1,-5,-1,8,5
6906860536,-3,-2,-6,-1,7,12,-6,2
6906875616,-11,-2,2,-2,5,-5,1,-3
6906875616,29,15,-3,1,4,9,-9,11
6906881693,-8,-7,-1,-3,-8,-11,-13,-4
6906881693,9,4,2,3,2,-6,-12,-3
6906904881,-27,0,0,-7,0,-14,-4,-5
6906904881,7,-9,-3,-1,-6,-15,21,-4
6906905608,5,3,-1,-2,-3,9,5,6
6906905608,-12,7,4,3,3,-1,16,-4
6906919863,-10,-5,-5,-2,-2,4,1,4
6906919863,-25,-15,-1,-1,-6,5,22,-15
6906920540,13,1,6,4,0,-1,-12,5
6906920540,0,12,-6,-2,2,0,11,0
6906935568,30,3,2,0,-4,-4,3,4
6906935568,-13,1,1,6,-3,9,-7,-2
6906941667,-3,-15,-8,5,15,12,-3,-8
6906941667,-4,17,8,-2,3,8,9,8
6906956684,3,13,2,-13,-8,-9,0,-7
6906956684,21,-1,-25,-5,-5,-10,-1,13
6906964178,-6,18,10,9,-8,-6,-12,-10
6906964178,-21,7,6,-5,-5,-7,-1,-6
6906979790,14,-59,-7,19,1,3,5,4
6906979790,-25,75,11,-7,4,-3,-6,-5
6906980602,24,-7,12,-4,-3,-2,15,5
6906980602,8,-1,-21,-5,2,-3,-26,-3
6906995633,-23,-8,4,-12,-5,5,-1,-2
6906995633,14,-3,11,11,7,5,0,1
6907001578,1,30,1,8,-3,-3,0,-3
6907001578,-23,-16,-14,-6,0,-5,10,0
6907016703,-1,37,-1,-16,-2,6,24,-1
6907016703,12,-9,16,41,-6,-3,-30,4
6907024213,7,31,-28,-24,14,-1,-8,0
6907024213,-24,-33,-3,-19,-9,0,15,-1
6907039161,-1,17,-5,16,10,3,-11,1
6907039161,-21,-4,-9,-18,-7,-3,11,-6
6907046711,13,0,21,16,-11,-13,-14,7
6907046711,1,9,-15,-11,-15,5,-1,-2
6907055565,8,34,4,-8,11,4,7,-3
6907055565,-4,-34,-10,-8,-4,-24,6,-3
6907061636,-7,-17,10,6,-3,17,-19,-3
6907061636,22,6,3,7,8,-10,17,-2
6907076728,-7,-5,10,10,1,19,-42,5
6907076728,-8,-25,-1,4,-1,-17,6,0
6907084261,3,-26,-14,-8,2,3,-11,-6
6907084261,0,-14,11,11,7,1,0,3
6907099136,11,-29,-7,-8,-18,-19,-3,-3
6907099136,-3,-13,-4,-9,9,19,7,-1
6907106687,-33,-35,2,-9,-25,-7,4,-8
6907106687,31,14,-2,-2,3,-1,-12,0
6907115614,-14,-20,-9,20,2,5,5,6
6907115614,10,5,-6,-25,-12,-3,-4,1
6907121677,-6,-4,-27,-6,6,-10,7,-6
6907121677,12,0,13,31,16,8,1,-1
6907136690,1,4,-9,-48,-7,6,10,6
6907136690,-8,-10,0,16,12,-2,-1,-6
6907144219,12,16,12,-2,-11,-4,-8,1
6907144219,-23,-18,4,18,8,-8,-2,-3
6907159209,11,3,-19,-6,-7,-8,0,-1
6907159209,4,22,0,-4,-3,-3,-5,3
6907166711,-13,2,-9,-18,-2,-3,0,-5
6907166711,1,12,14,5,1,3,-2,-1
6907183701,-16,13,24,-2,-6,-7,-6,-13
6907183701,14,-1,1,4,7,3,-2,2
6907185855,0,-2,-15,3,3,5,3,3
6907185855,-13,-3,-6,-22,-21,-4,-1,-2
6907198523,-4,-14,-19,-11,2,-9,11,-8
6907198523,7,28,3,13,-2,11,13,2
6907204215,3,8,12,8,21,12,8,6
6907204215,2,-2,-6,-4,-8,-6,-11,5
6907219170,5,-2,15,2,2,-3,19,-2
6907219170,-13,-20,5,-15,-9,4,-1,-6
6907226568,-4,-9,-14,-5,-11,1,-13,-5
6907226568,10,22,-6,3,2,-8,0,3
6907235615,18,3,-4,1,-10,-20,-8,-5
6907235615,-29,-3,-7,1,8,13,30,4
6907241635,11,-2,-2,5,8,33,31,12
6907241635,5,-15,4,-2,-4,-7,-21,-7
6907256496,-8,-13,-2,8,-1,1,-10,6
6907256496,16,-14,-1,-4,-7,-14,-9,-14
6907264127,2,-10,3,1,1,-10,4,2
6907264127,-1,2,1,0,-4,3,19,5
6907279033,-15,-9,-3,4,-3,-4,0,0
6907279033,-3,-7,-7,-9,-6,-5,-11,-7
6907286652,-15,1,9,3,0,-7,-10,-5
6907286652,11,8,22,3,-12,-1,-3,-2
6907302369,-1,-10,-29,4,20,6,-13,-1
6907302369,-2,-15,0,0,-3,0,-11,3
6907303172,0,-19,-15,-11,-3,-11,-6,-5
6907303172,-3,-1,-4,-7,-4,-2,-3,0
6907316708,2,2,14,12,-2,-1,-5,-2
6907316708,11,3,0,-5,-4,-12,-4,4
6907324091,7,17,1,-5,-6,10,1,-4
6907324091,-36,-3,6,13,1,2,-5,-8
6907339158,11,-7,-9,-6,-1,4,-2,5
6907339158,-9,16,-1,1,0,-3,-1,-3
6907346701,23,9,2,-4,-9,-10,-24,2
6907346701,-10,34,0,0,4,4,2,-2
6907362322,3,-36,5,3,2,3,11,-4
6907362322,14,96,5,-11,-5,5,-8,14
6907363073,-19,-99,-13,3,-3,-14,13,-11
6907363073,19,50,2,-5,-1,8,-34,10
6907376664,12,8,-2,2,0,-4,-16,-5
6907376664,-6,-17,-5,0,0,-3,-12,3
6907384151,-36,28,-7,-16,-8,-13,-6,-20
6907384151,11,-22,8,26,23,16,36,11
6907399160,-3,-127,16,9,-3,5,-3,8
6907399160,3,81,-22,-28,-5,4,-9,-9
6907406614,0,71,-26,11,8,-5,2,9
6907406614,-9,-39,-18,2,-13,-20,1,-2
6907422258,6,45,15,13,-2,1,13,-3
6907422258,12,29,22,-10,-1,3,-9,4
6907423089,-10,-9,41,18,-4,2,-9,-7
6907423089,7,-15,0,24,50,20,13,4
6907436727,16,50,8,9,9,1,9,14
6907436727,-29,-54,-29,-26,-10,-10,-12,-8
6907444183,15,35,19,24,-2,-7,-7,-5
6907444183,-2,16,-1,-48,-25,-6,-9,-6
6907459103,-3,39,14,4,-8,-1,3,-2
6907459103,-2,-36,-5,4,7,3,15,1
6907466645,4,-6,8,7,-2,-5,-19,-1
6907466645,-7,2,-9,0,-4,-12,4,-6
6907490433,-3,-1,-19,-20,-8,9,1,-9
6907490433,1,-2,8,-5,-26,-3,4,7
6907491320,-19,-10,5,6,13,28,14,-2
6907491320,12,-10,0,12,11,-11,8,3
6907496638,-9,8,-5,0,17,-9,-12,-11
6907496638,10,-20,0,11,18,11,32,7
6907504189,-8,-36,-10,-27,-36,-8,22,0
6907504189,-14,-42,-19,-17,-21,-5,-42,-15
6907519252,-2,-2,-4,-6,-10,-1,0,-5
6907519252,2,-14,11,31,13,5,-7,2
6907526694,12,-24,-12,-11,7,-13,1,3
6907526694,-5,-3,4,-13,-4,5,9,0
6907542256,-14,4,-2,0,2,-18,-19,-2
6907542256,6,-21,-3,16,-12,2,5,-3
6907543082,-10,3,-16,-28,0,5,-4,-2
6907543082,-1,4,26,34,-11,-11,-5,-2
6907556564,6,24,-17,-29,3,8,-2,-1
6907556564,-20,-28,8,-15,-7,0,5,-5
6907564178,-3,11,4,8,13,-2,-3,2
6907564178,1,-7,-19,-15,-13,0,3,-1
6907580670,-11,-4,-7,-9,-5,4,2,-2
6907580670,3,-4,4,23,6,-3,-5,-7
6907587471,9,12,30,55,-2,-6,-10,4
6907587471,1,-19,-45,-79,-3,11,0,-2
6907602291,-24,-11,-2,12,4,6,7,6
6907602291,4,-5,-11,-21,0,-12,-10,-2
6907603111,-6,-2,1,4,-9,-5,-10,-3
6907603111,-2,15,7,16,3,0,8,1
6907616657,7,-4,3,-3,-5,-6,0,0
6907616657,4,3,-7,16,3,-1,-2,0
6907624111,4,-1,-5,-6,14,4,4,0
6907624111,-9,0,7,1,-5,6,-11,-7
6907639051,-2,-10,-3,-13,-8,-8,16,-1
6907639051,-6,-14,5,8,6,4,-25,6
6907647371,2,0,-14,-21,-8,-10,-4,1
6907647371,-3,-3,-5,-4,0,-3,-5,-4
6907662260,6,14,16,11,-8,4,0,0
6907662260,10,-1,-10,-8,-7,-10,5,-4
6907663079,-9,-7,6,-8,3,5,30,3
6907663079,5,-13,-9,7,-5,-13,-7,0
6907676709,13,7,1,5,1,1,3,3
6907676709,11,3,7,-2,-1,-6,5,-17
6907684205,-25,-5,-10,-12,-1,4,-2,4
6907684205,10,7,7,10,-2,-7,-17,3
6907699168,-34,-2,-5,0,-1,1,9,-12
6907699168,3,5,-7,-10,0,-2,-30,10
6907707260,4,1,3,1,-2,-11,-12,-6
6907707260,3,7,5,4,0,12,18,5
6907722230,2,-4,-6,-1,1,4,-17,-1
6907722230,-11,3,6,5,-1,-14,21,-7
6907722985,3,-3,-9,-5,0,16,-25,3
6907722985,5,0,-7,-1,-1,-7,-1,-3
6907736652,27,9,2,3,5,-6,-5,2
6907736652,-42,-5,1,-2,-6,4,29,1
6907744195,25,11,-4,-4,-4,-8,-12,-6
6907744195,-10,14,3,3,-1,-3,8,6
6907759141,-10,-13,3,4,-7,-3,-7,-6
6907759141,7,4,-15,-19,-1,-9,-12,-1
6907767385,-34,10,-2,-5,2,7,16,-3
6907767385,11,4,-1,23,5,6,-1,-4
6907790511,-18,-21,-12,-5,-7,-10,-2,-3
6907790511,0,-3,6,14,5,8,-6,-1
6907791177,25,1,9,-14,-5,1,-2,5
6907791177,-6,5,-11,-2,4,-3,3,-3
6907796750,-6,-22,-10,-20,-5,0,1,3
6907796750,0,4,1,17,-4,0,-4,-5
6907804168,2,-10,-7,-15,0,-6,-2,-4
6907804168,20,29,4,-15,-5,-4,15,5
6907819161,9,13,8,18,7,5,-29,4
6907819161,-6,22,5,-7,-8,-2,-8,-6
6907827318,22,-6,22,14,-5,-5,-14,7
6907827318,-20,-26,-24,-15,10,9,26,-8
6907842356,-12,-12,-16,-15,-8,-4,0,-2
6907842356,8,0,0,-2,-2,-17,-26,14
6907843004,0,26,4,12,-1,26,-12,-6
6907843004,2,14,14,14,8,3,7,2
6907856617,14,49,4,3,-6,4,0,0
6907856617,-28,7,7,14,-2,-5,1,-12
6907864151,17,-1,-15,-28,14,-11,3,1
6907864151,-19,-3,-2,0,-22,1,-28,-4
6907879185,7,-3,12,25,20,11,11,-2
6907879185,21,-22,-5,-11,-6,8,-1,10
6907887382,-16,-16,1,6,-3,-14,1,-7
6907887382,-4,-38,-2,-13,-7,-1,-1,0
6907902185,3,-31,3,-4,8,1,-3,5
6907902185,17,-14,-6,4,10,5,17,1
6907903073,-9,-15,-10,-17,-6,-13,-16,-9
6907903073,7,-16,4,2,-3,-6,-8,4
6907916562,-1,12,-4,-3,-20,-4,0,-2
6907916562,-12,-13,-2,-16,10,-3,4,-5
6907924164,-19,-5,1,7,-20,3,3,-3
6907924164,-11,-7,-11,-4,2,8,2,-4
6907939223,16,18,-4,-15,-17,-15,9,-4
6907939223,-8,-1,13,-8,11,12,22,1
6907947268,7,12,3,30,20,7,19,9
6907947268,0,9,-7,-15,-10,0,-14,-4
6907962314,0,13,-4,-9,6,3,1,2
6907962314,2,-6,-5,-2,-12,-15,-16,-7
6907963066,1,7,-9,-12,-17,-6,-1,-1
6907963066,-9,-13,1,4,11,-2,5,-3
6907984816,3,11,-5,11,5,-1,1,4
6907984816,-7,-8,-16,-8,-7,1,-9,-5
6907985520,-3,-7,-3,14,10,-1,5,3
6907985520,5,5,4,-11,-7,-12,-10,-6
6907999135,-15,8,9,2,-5,-4,3,-3
6907999135,13,4,2,4,-4,0,-7,0
6908007284,9,0,3,-5,8,11,15,10
6908007284,-8,5,8,2,-3,-13,-2,-2
6908021615,-3,-5,-1,-1,-1,2,-7,-3
6908021615,3,-7,-7,5,11,20,7,-1
6908029840,7,8,-3,-3,-5,-10,-6,4
6908029840,10,11,5,11,8,-11,-7,2
6908036585,2,-4,7,5,6,21,4,-1
6908036585,-27,0,-2,-1,-7,-12,-3,-4
6908044153,0,5,-7,2,3,6,5,-7
6908044153,8,0,13,8,-2,-11,-42,10
6908059159,-5,-16,-28,-21,-5,0,3,-4
6908059159,12,7,0,-4,-3,-5,-4,0
6908067292,-2,-9,3,2,-2,-2,-4,-3
6908067292,-8,-18,-5,-6,-5,-5,5,-4
6908081599,-7,-4,3,-3,-5,-7,-1,-2
6908081599,-9,-18,2,1,-1,2,-12,-1
6908089827,-9,-9,-10,-8,-6,-10,-9,-8
6908089827,1,-8,3,5,2,9,34,-2
6908096663,1,-3,4,4,5,-5,-9,3
6908096663,11,9,-4,-4,-6,-21,-14,-4
6908104155,-2,-9,1,-1,-1,3,-2,2
6908104155,11,-6,-1,0,1,15,13,2
6908119086,1,-13,1,1,2,3,-7,0
6908119086,-9,-8,2,1,-2,-2,1,-3
6908127330,-4,-13,0,2,-2,-6,2,-2
6908127330,-15,8,-3,1,0,-3,-8,2
6908141703,-15,-15,-3,-5,-2,-9,13,-3
6908141703,13,5,-1,4,2,4,12,-4
6908149812,-8,12,5,-1,0,12,11,0
6908149812,24,43,6,2,1,-4,19,10
6908164826,9,11,0,-1,-1,6,-9,6
6908164826,6,26,2,-5,-3,-3,9,0
6908165519,12,1,7,1,-2,-13,-10,-8
6908165519,-71,-13,11,12,-3,16,20,-13
6908179243,19,3,-42,-37,3,-9,-18,9
6908179243,0,-37,16,24,-4,5,-18,-7
6908187360,21,101,58,15,2,0,8,24
6908187360,-9,-23,-78,-55,-11,-5,-17,-20
6908201673,5,21,29,4,9,1,10,2
6908201673,-27,57,49,25,-22,-2,-4,-3
6908209771,1,-24,-101,-84,6,10,1,-4
6908209771,-2,-96,49,102,9,4,4,6
6908224790,-19,97,-39,-15,-4,-3,9,-3
6908224790,50,25,-68,-55,20,9,23,17
6908225516,-12,-16,19,-10,-12,-8,-43,-17
6908225516,15,97,10,-21,-10,-5,1,10
6908239161,-12,-85,2,37,-16,-13,0,-9
6908239161,26,35,21,10,6,-1,5,3
6908247290,4,-1,-2,21,11,16,34,10
6908247290,-1,45,-4,-11,10,-2,9,7
6908261656,9,9,35,10,-11,-16,-30,-15
6908261656,-32,-19,-24,-27,-18,-13,-69,-22
6908269855,6,-3,10,-3,1,-8,30,14
6908269855,6,-5,12,23,23,31,-102,0
6908284826,-1,9,0,0,15,-13,39,-5
6908284826,0,47,-4,-24,-21,6,-27,5
6908285499,-25,19,-8,24,-28,-22,-73,-9
6908285499,-1,-11,-6,-34,-18,-20,15,-14
6908299048,-2,-3,5,5,22,39,26,14
6908299048,-3,-9,18,44,4,12,42,6
6908307319,4,-13,-18,-43,-8,-15,-2,-6
6908307319,1,-32,-11,17,50,-33,3,-1
6908321638,6,-41,6,-4,-39,41,-16,-5
6908321638,-4,-51,-3,-1,-2,-13,25,-4
6908329895,-5,-43,9,18,-1,3,38,8
6908329895,7,-9,-4,-16,-8,-10,-3,-11
6908344785,-4,-5,-8,0,2,-21,-1,0
6908344785,-12,-34,3,0,-9,-3,-21,-4
6908345498,-25,-14,-3,-11,3,15,2,-9
6908345498,29,4,-4,-13,-5,12,20,3
6908359143,-6,16,12,-2,2,-4,-17,-1
6908359143,-15,-20,-13,-16,1,13,29,2
6908367373,2,-5,9,6,11,-5,-19,-8
6908367373,12,5,-36,-32,-15,7,18,5
6908381633,-1,-3,0,16,-8,2,5,4
6908381633,14,14,-7,-3,15,-9,-5,2
6908389835,-3,-1,-13,-8,0,1,4,-6
6908389835,-3,9,18,-4,-28,-2,-4,-4
6908404760,-3,-2,-7,-5,13,-14,-6,-3
6908404760,-4,-2,-5,5,2,3,8,1
6908405433,-3,-6,10,18,-13,-9,-12,-7
6908405433,1,-2,-6,5,-1,3,10,-1
6908419140,9,5,5,5,-1,-6,-9,3
6908419140,-9,-5,1,19,18,0,-3,-8
6908427355,-19,-13,-26,-36,-18,-5,7,-1
6908427355,7,-4,1,3,-2,-12,-7,0
6908441660,-9,-10,-4,-3,2,1,13,-4
6908441660,16,15,8,10,6,0,19,2
6908449829,-12,15,10,15,6,12,4,-1
6908449829,-21,-10,0,-2,-3,-10,-7,-3
6908466116,11,3,5,0,2,7,3,3
6908466116,-10,-26,-10,-28,-9,11,-3,-5
6908466928,12,-24,0,20,8,-5,-26,0
6908466928,6,4,14,1,-8,-15,-10,-3
6908479144,-13,-3,0,-8,0,7,-9,0
6908479144,-4,4,-6,-7,1,-16,0,2
6908487332,5,4,12,10,6,16,9,-1
6908487332,-5,11,7,-3,-6,-11,1,-7
6908501678,18,-8,-5,-6,5,20,-6,6
6908501678,-17,-7,-1,2,2,9,-7,1
6908509793,5,-2,-1,6,-2,-7,-2,7
6908509793,1,-8,7,0,3,4,25,-1
6908524838,-2,-10,-5,-6,-4,-11,-15,-2
6908524838,5,-12,1,-5,-12,-7,-2,-6
6908525538,-8,-1,-2,6,5,7,8,5
6908525538,-2,-2,5,-1,-1,7,-7,0
6908539100,-11,-6,-13,1,0,-11,-1,-2
6908539100,14,6,-1,0,-1,5,-10,1
6908547327,-5,13,0,0,-2,-15,8,-6
6908547327,10,8,-1,1,-2,9,-10,9
6908561660,-19,18,6,0,3,-1,5,-4
6908561660,-12,-9,-2,-5,-5,-11,-9,-4
6908569749,18,-5,-1,4,-2,-5,1,-2
6908569749,-5,8,-5,2,1,8,13,3
6908584794,17,17,2,-5,-8,-9,-10,-5
6908584794,-17,3,-2,1,-3,2,14,1
6908585503,-6,3,3,1,7,3,6,3
6908585503,31,13,-8,-2,-3,-1,-23,-1
6908600545,-45,-16,-5,-1,-5,-19,7,-8
6908600545,6,-5,-4,-6,-3,9,16,-4
6908607244,2,12,2,-2,-2,-1,-11,-4
6908607244,-8,3,2,3,2,10,16,0
6908621649,6,-14,3,0,1,-22,-3,4
6908621649,18,18,4,-2,1,11,-7,9
6908629777,-17,-2,-5,-4,-3,-8,-19,-11
6908629777,1,-8,-3,-1,1,2,1,0
