timestamp,emg1,emg2,emg3,emg4,emg5,emg6,emg7,emg8
7295932004,-8,-44,-12,-13,-7,0,-1,-3
7295932004,0,44,19,18,4,0,-2,-3
7295932952,-10,-5,-23,9,2,-2,0,-4
7295932952,-8,-10,-6,-13,-8,-3,-2,2
7295937615,-3,39,17,23,1,-2,-2,0
7295937615,12,12,-10,-27,-3,2,4,6
7295939255,-19,-92,9,9,-6,-5,-8,-6
7295939255,4,73,-6,-6,2,-1,-1,-5
7295943384,9,-25,-11,-13,-4,-1,1,0
7295943384,-17,-22,0,17,6,-3,-2,-5
7295952120,16,51,16,-1,0,1,3,11
7295952120,0,-20,4,-6,-9,-6,-7,-5
7295974757,11,-7,2,0,-3,-6,-2,-6
7295974757,6,-1,-10,-15,-11,0,4,5
7295975416,-13,-15,-4,2,10,8,0,-2
7295975416,-15,-8,9,11,18,12,10,0
7295982081,0,24,-3,-4,-1,1,3,0
7295982081,0,-7,-2,-15,-17,-14,-16,-8
7295997716,20,25,1,-7,-16,-10,-8,-5
7295997716,-25,-8,-17,-15,9,7,7,3
7296003430,-4,7,6,6,16,1,1,0
7296003430,-6,2,6,17,8,13,2,-2
7296051557,-2,4,-22,-12,-4,-5,-8,0
7296051557,-6,2,0,24,6,-5,-1,-5
7296052380,-20,-2,-10,-16,-8,-3,-4,-5
7296052380,9,5,7,5,-2,4,-3,0
7296053254,4,-8,5,16,7,2,4,0
7296053254,-2,-8,0,-26,-2,1,8,0
7296056404,1,-19,9,41,4,0,-2,1
7296056404,-8,-12,-10,-28,3,6,2,0
7296063168,2,-9,6,4,-11,-1,-2,-2
7296063168,3,-5,-5,5,2,-3,-2,-1
7296070720,0,-6,-2,-9,2,-1,1,-3
7296070720,-7,-11,-3,5,3,-2,1,-5
7296079521,-11,-15,-4,-19,-14,-1,-2,-7
7296079521,-2,-11,-10,5,8,5,3,2
7296093920,16,18,2,9,-3,-12,-5,-1
7296093920,-14,-23,-10,0,-16,-2,-8,-9
7296100711,-1,11,6,-13,8,-1,4,-2
7296100711,-2,-10,-22,-15,-4,-7,-9,-6
7296108144,-10,1,-3,-6,0,2,-5,-7
7296108144,5,5,-1,-2,6,-3,3,3
7296123223,3,-4,4,14,0,2,6,5
7296123223,-24,-15,0,-13,-13,-4,-3,-11
7296130707,9,8,9,-5,6,5,6,-1
7296130707,5,13,0,-2,-6,-3,13,5
7296139567,3,9,-4,-12,0,0,2,1
7296139567,5,10,8,-2,-7,-6,-6,-1
7296153735,-5,-3,-7,-3,-3,-5,10,-2
7296153735,-6,3,5,12,4,10,-11,-3
7296160741,1,6,1,0,-3,-3,-2,-1
7296160741,4,4,4,3,6,-1,6,3
7296168219,-5,-12,5,-5,-5,4,-21,0
7296168219,-5,-4,-6,-6,-9,-16,4,-10
7296183143,7,2,6,6,4,12,29,5
7296183143,8,10,3,-2,-2,-6,-17,3
7296190590,-16,-9,-7,-5,-5,6,8,2
7296190590,0,-3,-6,-2,5,6,32,-10
7296199568,-5,-2,-3,0,0,-13,-15,3
7296199568,3,6,2,6,-3,-5,-8,15
7296221975,5,0,-3,-4,-3,-9,-16,-31
7296221975,-1,4,1,2,4,10,-4,-1
7296223566,-3,-6,-5,-1,-4,0,-11,-7
7296223566,4,-6,1,-1,-2,2,3,-4
7296228231,-4,-7,-4,-6,-2,-12,3,3
7296228231,0,-8,0,-2,-2,-7,-14,8
7296251364,-7,-14,0,3,0,0,-5,-10
7296251364,-5,-10,-2,-3,-2,-2,2,3
7296252043,4,5,-2,-4,0,8,4,8
7296252043,2,0,3,2,-1,-7,4,-7
7296259576,4,-1,-2,-1,2,3,-5,11
7296259576,-8,0,-2,0,0,-2,-2,-9
7296273812,-4,-7,-3,-4,-3,1,-3,4
7296273812,-10,2,4,0,-1,-4,3,4
7296280681,4,4,-11,-10,-3,-6,-8,-6
7296280681,31,12,5,4,-3,6,0,6
7296288185,4,12,3,-2,-10,-6,5,3
7296288185,-10,-30,-1,4,3,-2,-16,0
7296303202,-12,21,-22,-20,5,9,5,-6
7296303202,-15,-23,5,18,2,8,-2,-8
7296310694,2,-34,13,3,-4,-1,5,7
7296310694,6,57,-7,-13,6,-9,-11,-2
7296319524,2,15,19,24,-2,1,10,7
7296319524,21,12,1,-32,-3,-8,-14,-1
7296333749,-4,15,-17,-13,16,1,12,-3
7296333749,-24,-39,-5,5,-7,-4,-21,1
7296340705,-16,-24,9,7,-3,13,4,-6
7296340705,4,29,10,17,6,3,4,1
7296348168,6,4,28,14,-6,-1,-25,5
7296348168,7,21,1,-14,-7,-9,-9,-3
7296363203,10,-5,-9,-2,3,-9,-5,2
7296363203,-17,7,5,0,0,6,4,-3
7296370721,20,15,-13,-4,5,9,3,6
7296370721,7,-4,-10,1,0,1,10,1
7296379515,-22,-7,-1,-1,-11,-13,-20,-9
7296379515,-2,10,-7,-7,1,-1,12,-1
7296393871,-9,4,-18,-10,-5,-3,7,-1
7296393871,23,38,5,1,-7,-3,-10,3
7296400695,-4,-7,25,15,-5,-5,7,-4
7296400695,-10,-31,-30,16,23,17,4,3
7296408236,-9,-7,-16,-32,11,5,10,-2
7296408236,4,-38,4,0,-4,-1,-4,1
7296423126,7,12,1,-5,-8,-8,-14,0
7296423126,3,-9,6,-5,-21,-13,2,-6
7296430659,6,5,-2,17,7,4,-2,2
7296430659,-10,-13,-3,-15,5,10,8,1
7296439590,1,-6,-6,1,1,-13,-3,-2
7296439590,-2,5,4,1,-4,-7,-16,0
7296453885,5,-9,2,3,-9,-2,5,-3
7296453885,-21,1,4,-4,8,7,7,-3
7296460663,4,-4,-7,12,8,7,27,4
7296460663,5,3,3,-9,-4,-6,-6,-5
7296468099,-10,-3,-15,-10,-24,-7,-13,3
7296468099,19,14,2,60,0,-9,-3,2
7296483134,-12,-18,-6,-43,22,7,-7,-8
7296483134,-1,2,-14,-7,5,6,14,2
7296499553,13,22,-6,-3,2,-2,2,1
7296499553,-1,8,18,-11,-17,-6,2,1
7296501008,4,-4,-4,33,6,1,-9,3
7296501008,8,14,7,16,-9,-14,-5,1
7296513745,-16,-15,-2,7,11,7,0,-5
7296513745,3,-7,-13,-12,-5,-3,-8,-2
7296520709,4,-19,2,-1,-1,-2,7,1
7296520709,-16,-6,-8,-23,2,17,10,1
7296528132,16,7,-1,2,-7,-8,0,0
7296528132,-29,-31,-2,-15,-1,4,-13,-3
7296543174,1,1,3,-3,0,-8,9,1
7296543174,-3,-6,-7,1,-7,-3,-8,-3
7296550645,-2,6,5,5,-1,-10,-5,1
7296550645,12,19,-2,-1,4,9,1,1
7296559564,12,14,-13,-3,-10,-12,-5,4
7296559564,-11,8,8,6,12,1,15,-6
7296573860,0,2,11,6,2,-2,-12,-6
7296573860,4,4,-9,-9,-2,-6,-2,4
7296580660,2,6,0,-5,-14,10,-5,-6
7296580660,17,-8,3,0,-1,-6,32,9
7296596371,-32,-32,-3,-1,2,-3,-11,-16
7296596371,7,-23,-5,1,-7,-20,-13,2
7296603062,-5,-7,-2,-11,-7,-2,-14,32
7296603062,20,-14,4,-1,3,-6,-15,-39
7296610631,-17,-9,2,6,12,25,14,-2
7296610631,-3,1,3,0,-2,-10,-2,1
7296619563,-14,2,-1,-2,-5,2,-4,-19
7296619563,7,-13,-6,-11,-17,-14,-4,13
7296633778,-4,-4,5,0,-1,-5,26,17
7296633778,-8,-1,-1,2,8,13,5,-17
7296640695,7,-2,0,0,2,8,19,1
7296640695,8,-2,-5,2,0,9,-19,4
7296656333,-4,4,-6,2,-2,-7,3,-13
7296656333,-9,16,9,2,3,7,26,16
7296663096,4,-9,-6,-5,-7,-1,-30,-12
7296663096,-27,9,0,-2,-1,3,-5,3
7296670616,11,16,11,-4,-9,-14,-4,-2
7296670616,-7,2,-11,3,2,13,9,0
7296679545,12,8,-18,-14,4,-4,-4,3
7296679545,14,8,4,-12,-8,-2,-1,-3
7296693839,-22,34,5,18,1,0,-11,0
7296693839,0,-48,1,-10,4,7,5,-1
7296700513,0,-48,9,22,6,-2,2,-6
7296700513,7,27,-23,-30,-19,-7,-5,2
7296716268,8,44,31,24,8,2,1,4
7296716268,0,-45,-33,-16,-10,-2,1,-4
7296723205,13,44,-5,11,22,13,16,6
7296723205,-33,-46,7,32,-4,-11,-6,-8
7296730686,7,20,-18,-26,-14,-8,-17,-3
7296730686,17,50,6,19,1,-3,-3,-4
7296739491,-9,-42,-16,-36,-12,-10,-1,-5
7296739491,-22,-48,-7,14,2,3,-24,-3
7296753752,3,-9,12,9,-13,-9,-7,0
7296753752,15,-73,8,-5,-9,-1,-3,3
7296760680,-16,99,-27,-15,9,1,5,-4
7296760680,18,34,12,12,15,5,8,9
7296776281,-17,-23,12,26,-8,1,4,-3
7296776281,32,35,-13,-38,-12,-8,-11,1
7296783214,-39,-25,25,28,6,-3,-9,-7
7296783214,-15,-39,-23,-32,-10,-1,6,-1
7296790696,24,4,10,24,3,8,-3,1
7296790696,0,39,-5,-20,12,2,12,-1
7296799507,-3,-18,7,3,1,5,0,-1
7296799507,-12,30,3,2,15,-4,-5,-2
7296813909,0,-44,-17,-9,-3,6,21,5
7296813909,1,26,13,5,-5,4,-2,0
7296820670,-1,-17,-15,-25,-36,-21,-22,-16
7296820670,11,3,19,21,9,12,32,22
7296836359,14,-1,-5,-23,6,8,-2,-1
7296836359,-24,-17,-5,10,15,-22,-12,-5
7296843069,5,0,11,10,-11,6,18,1
7296843069,-12,2,-10,-22,-3,5,-11,-7
7296850658,-1,-23,-6,-8,12,-9,-9,-6
7296850658,-3,14,8,15,-2,8,6,-1
7296859561,10,0,13,47,7,1,-13,3
7296859561,1,7,-14,-59,-9,-18,-5,-2
7296873772,-11,-12,-8,-14,7,26,10,3
7296873772,-1,-3,0,8,-17,-10,0,-5
7296880527,1,12,4,-4,-6,-6,-4,1
7296880527,-10,-31,13,6,-6,-10,-4,-8
7296896368,3,-9,-29,-16,-6,-1,0,-3
7296896368,2,23,6,15,5,12,1,5
7296903127,0,6,13,-2,1,4,4,-2
7296903127,-9,1,-3,-4,-1,-1,9,-10
7296910659,1,6,-12,-10,-6,-9,18,3
7296910659,-5,2,-4,1,-5,-7,3,-1
7296919720,7,0,-1,-3,10,7,6,6
7296919720,8,3,3,16,4,6,4,2
7296933740,-2,-4,6,-5,-3,-9,-8,-3
7296933740,-10,-23,-15,-16,-12,-4,-4,-3
7296940618,6,0,-8,-15,-1,2,17,2
7296940618,-10,0,6,13,5,5,-1,2
7296956367,7,6,-8,3,0,-14,-6,-3
7296956367,-7,8,8,5,9,11,-5,-2
7296963119,16,0,2,-5,-3,-8,-6,7
7296963119,-7,9,3,7,-8,-7,-6,-3
7296970635,20,4,-1,-2,8,10,-1,4
7296970635,-15,14,5,-1,2,-13,-5,-8
7296985592,-4,-4,-4,-2,4,14,32,5
7296985592,-1,4,-1,5,-1,-3,12,-1
7296993797,-7,-6,4,-2,-1,6,-7,6
7296993797,12,-18,2,1,1,-4,0,-2
7297000667,-6,-7,0,-2,-1,8,-1,-6
7297000667,3,-1,-4,1,-1,-4,4,-1
7297015626,-7,-10,-1,-3,-5,-8,-3,-1
7297015626,3,-11,-1,4,0,9,1,-2
7297024528,-13,-3,1,-3,-4,-18,-22,-3
7297024528,10,-1,-4,3,-1,-2,-31,1
7297038857,-16,-3,1,0,-2,2,5,-5
7297038857,9,1,-2,-1,2,-1,-3,4
7297045633,5,1,-3,-5,-2,2,10,-2
7297045633,-11,-2,2,0,0,0,-8,-6
7297061997,0,21,0,0,-4,5,-9,1
7297061997,-18,-59,-8,-6,-11,-18,-5,-5
7297063491,2,-9,-5,-2,4,4,-1,1
7297063491,19,22,6,11,8,14,3,-1
7297075684,-8,5,10,8,5,-1,4,3
7297075684,-12,23,-23,-11,5,2,1,-2
7297084521,-3,-4,7,7,-9,-6,-13,-3
7297084521,-2,-12,-20,-18,-10,-8,-5,-6
7297098864,25,45,-2,3,-6,-9,-7,2
7297098864,-9,-13,-10,-23,-2,1,-7,-6
7297105683,-13,58,35,36,1,3,-3,2
7297105683,-8,-67,-19,-40,-2,-3,-2,-4
7297122011,-3,-42,-13,2,-2,-4,0,0
7297122011,14,74,21,24,7,2,-5,5
7297123473,18,-32,-19,-20,5,2,-2,-4
7297123473,15,28,30,27,-2,4,13,13
7297136375,-8,-3,-5,7,1,-5,-14,-7
7297136375,-5,12,5,-30,-11,-6,-11,-5
7297143134,6,0,-19,-14,3,-1,-1,2
7297143134,-29,13,1,29,-8,-5,-11,-13
7297158901,11,2,-11,-30,0,0,14,4
7297158901,-6,-38,-9,-3,-5,-2,-4,-3
7297165688,-4,29,7,3,3,1,9,1
7297165688,16,18,-5,-8,-4,-1,-3,0
7297182095,-48,21,6,11,1,2,4,-2
7297182095,9,-10,1,5,-7,-8,-3,-7
7297183492,-17,-19,-9,-19,-15,-7,-14,-4
7297183492,17,0,-8,-2,15,8,8,1
7297196285,-8,-22,9,5,-2,-3,-8,0
7297196285,8,16,8,8,1,-12,-2,0
7297203057,-4,-9,-3,4,3,15,-3,-4
7297203057,-3,5,2,8,-6,-1,0,0
7297218827,11,18,2,-22,-4,1,7,-5
7297218827,5,4,-9,1,6,3,19,11
7297225629,-2,-18,-1,17,6,-7,-13,-4
7297225629,-7,-6,4,21,10,5,-1,1
7297242028,8,-18,-17,-35,-7,-2,-5,-3
7297242028,1,-4,-4,-4,-7,3,-5,-1
7297243499,-23,-33,6,1,-10,-6,-4,-7
7297243499,8,1,-5,-40,-5,2,3,2
7297255669,11,-5,4,23,0,-10,-7,1
7297255669,-16,-5,8,0,-3,1,-2,-3
7297264518,14,24,-15,-4,-2,-7,-4,3
7297264518,-4,-3,12,29,7,-4,5,0
7297278878,2,-9,-5,-21,-10,-2,-9,-2
7297278878,-16,-16,5,-22,-2,10,2,-8
7297285658,11,26,14,51,1,0,10,4
7297285658,2,-20,-30,-54,-6,-5,-9,-2
7297301938,-2,8,12,10,11,2,-10,-2
7297301938,12,0,-23,10,5,11,16,7
7297303490,-8,-17,-9,-14,-9,-6,3,-2
7297303490,-5,2,12,18,2,-6,0,3
7297315634,2,-10,-13,-1,3,11,-2,-2
7297315634,-11,-21,-1,-22,-14,-19,-7,-6
7297324534,-10,-1,10,5,4,8,-7,-3
7297324534,-3,12,1,-15,-15,-9,-5,4
7297338750,0,2,-4,20,2,5,6,0
7297338750,-2,1,2,-2,8,0,-2,0
7297345603,18,-2,-14,-36,0,-4,0,-1
7297345603,-18,14,7,11,-2,-7,-6,-2
7297362428,-1,-19,-14,-6,0,-9,16,3
7297362428,-3,30,26,38,9,18,0,-2
7297363940,13,-8,11,-15,-14,-6,-18,-5
7297363940,-9,18,3,6,4,-17,-19,2
7297375573,12,-36,-2,0,-8,16,-2,-19
7297375573,23,23,3,0,2,-9,-9,24
7297384510,-22,-43,-14,-4,1,4,-18,0
7297384510,11,35,14,3,2,5,16,11
7297399558,-28,-88,-24,-7,-1,-13,-26,-43
7297399558,-7,-24,0,5,2,1,-5,-4
7297405612,11,7,5,-5,1,-2,-1,-5
7297405612,24,-58,-16,-1,-5,-14,1,3
7297421331,-23,34,21,11,-2,9,4,9
7297421331,-9,-10,10,-6,1,4,0,-13
7297422026,1,25,-42,-9,8,-1,16,-1
7297422026,-7,62,-3,2,-7,10,1,-7
7297443782,13,40,23,-1,-6,-14,-4,11
7297443782,-5,-3,-35,-12,-2,-1,-2,-1
7297444497,1,27,13,13,3,-1,7,5
7297444497,-11,2,2,-5,-3,5,-1,-4
7297459537,3,0,3,15,-19,-14,-11,3
7297459537,4,-15,16,11,5,5,8,2
7297465633,-8,-7,-30,-24,23,14,15,7
7297465633,4,39,0,13,-2,8,0,-8
7297481310,-17,26,8,-4,9,-2,3,1
7297481310,11,-103,-23,4,-9,-9,-8,-7
7297481981,-30,23,0,-18,-8,-11,16,-4
7297481981,26,38,20,16,0,6,-24,4
7297503823,-21,-65,-12,-5,4,-5,-2,-3
7297503823,0,73,3,4,-1,0,6,6
7297504481,-13,7,1,-2,-4,2,5,-6
7297504481,14,17,8,2,0,-2,6,-2
7297519516,27,11,-7,-9,0,4,5,14
7297519516,-13,-21,-5,3,9,-7,0,-2
7297525639,-18,-5,12,1,-6,11,-10,-3
7297525639,-20,-24,-7,-7,-8,-8,-5,-6
7297541330,32,59,-6,-13,6,4,4,-1
7297541330,-9,20,10,6,-4,-14,-10,5
7297542001,4,-34,-5,-4,-11,-2,-25,-3
7297542001,9,-89,-6,-20,5,3,12,1
7297563780,5,35,12,17,12,8,-5,3
7297563780,2,20,7,-13,-9,-4,-8,1
7297564472,7,-24,7,-6,-14,-20,-5,0
7297564472,-1,-48,-6,28,17,11,2,-4
7297579522,-11,-5,7,10,6,0,11,3
7297579522,-5,20,-9,-39,-5,2,-1,-6
7297585654,22,49,9,16,13,-3,-2,3
7297585654,-7,-22,2,-9,-5,2,14,1
7297601291,-21,16,0,19,-1,8,-13,-5
7297601291,18,5,0,-5,-11,-6,-1,0
7297602033,-2,-27,-10,-11,0,-7,-2,-2
7297602033,-21,5,-5,9,9,-2,2,-3
7297623783,3,3,7,-4,-5,1,-4,-2
7297623783,-1,-1,14,45,9,2,9,-5
7297624453,15,-6,-14,-31,6,6,7,5
7297624453,-8,11,-4,-3,-14,-9,-6,-3
7297639514,-1,-15,-10,-25,-22,-15,-8,-1
7297639514,-19,-35,-7,38,-3,5,-4,-13
7297645608,23,28,-1,-6,-1,1,12,6
7297645608,-11,-12,1,17,24,12,2,-1
7297661289,-2,-18,-8,-36,-22,-8,-4,-3
7297661289,13,27,3,2,-7,-5,2,6
7297661989,0,3,8,34,7,-3,-6,-7
7297661989,20,31,7,-20,-22,-8,-4,7
7297683759,-17,-14,9,-16,15,10,8,-7
7297683759,-4,15,-2,25,32,11,7,2
7297684466,6,7,-1,16,-7,-14,4,1
7297684466,-11,-3,-4,-15,-11,1,-10,-6
7297699497,18,21,8,5,-8,-13,-1,3
7297699497,-21,-12,-9,-5,10,-3,2,-1
7297705537,3,-6,-3,-10,-8,16,3,2
7297705537,-4,-10,-28,-5,-6,-5,1,-3
7297721245,-13,-20,-15,-16,-5,-6,-7,-6
7297721245,-7,-7,-7,-23,-13,-1,-10,-7
7297722008,-3,-3,5,1,-6,-11,-10,-5
7297722008,-1,9,5,-9,-2,0,7,-3
7297743738,5,8,7,23,7,8,15,7
7297743738,24,17,2,-5,-4,-12,-7,4
7297744513,-31,-14,-3,-5,-4,2,20,-13
7297744513,13,7,4,4,7,7,-10,14
7297759453,3,-1,-8,3,3,6,-3,-5
7297759453,-9,-21,-2,-10,-3,-2,-4,-8
7297765658,-3,-6,14,5,0,-10,-16,3
7297765658,-5,-26,-6,-5,-1,0,-10,-4
7297781266,4,-14,-9,4,-4,-2,0,4
7297781266,11,-2,2,-6,-1,3,10,4
7297781966,-3,-17,-1,0,-3,-3,-17,-2
7297781966,-4,-10,-7,-4,0,-1,7,-1
7297803776,5,7,-4,1,1,-6,-10,1
7297803776,-1,11,1,-5,-4,-3,-1,-2
7297804441,-18,8,4,0,2,12,-8,-6
7297804441,13,4,3,-3,1,2,12,0
7297819453,-25,-4,-1,2,-4,-13,5,6
7297819453,-5,-18,-3,-6,1,10,-3,-8
7297825560,18,-13,1,1,-2,-1,18,7
7297825560,0,-5,-5,-10,-2,5,0,-3
7297841257,-2,0,5,8,0,-15,-14,-3
7297841257,-15,-10,2,5,3,-7,0,-2
7297841972,8,26,2,-20,-11,1,-5,1
7297841972,9,47,21,21,7,-7,-11,0
7297863772,-2,-37,-27,-13,-1,6,14,-5
7297863772,23,3,18,15,-4,5,4,8
7297864618,-48,-19,-25,3,9,5,6,-3
7297864618,4,23,8,-9,5,0,2,1
7297879486,16,-11,4,-2,-3,2,0,3
7297879486,0,28,-10,-20,-4,-5,-7,-4
7297885558,16,-14,-3,-8,-10,-10,-5,2
7297885558,-6,-25,1,-22,-21,-9,-2,-8
7297900471,-20,28,6,5,11,5,0,1
7297900471,-2,52,4,18,-2,8,6,2
7297908117,12,-33,3,11,6,-2,3,-4
7297908117,-24,4,-16,-27,-6,-3,-6,-3
7297923777,21,-17,2,-13,-6,-4,-7,-5
7297923777,34,96,6,-22,-6,0,1,10
7297924442,-32,8,-19,-12,-8,-5,14,-6
7297924442,10,-22,-7,12,6,1,-19,-3
7297939471,1,3,16,17,1,1,1,3
7297939471,-23,-42,0,-4,4,0,-1,-8
7297945688,29,24,6,5,-13,-10,-10,4
7297945688,-6,-18,-13,2,2,-1,9,2
7297960578,-12,26,-1,12,21,8,3,0
7297960578,-2,-17,-22,-26,-8,-2,-7,-3
7297968080,7,-5,21,34,9,3,-10,2
7297968080,-10,24,2,2,0,-4,11,3
7297983787,14,-19,-3,-7,-22,-8,-8,-3
7297983787,-19,-17,2,8,7,2,-5,-8
7297984434,4,-8,1,-14,5,1,-3,-1
7297984434,15,-14,6,21,-1,-3,3,0
7297999493,-10,32,3,-2,-5,1,6,1
7297999493,9,-33,-4,1,3,-3,5,2
7298005588,-8,-2,-1,-1,7,4,-3,-4
7298005588,-13,-5,-6,-4,-1,-10,2,-8
7298020545,10,-8,-4,1,-5,4,3,6
7298020545,3,-12,-6,-12,-11,-2,-12,-2
7298028142,-9,-4,1,-2,-6,-8,-2,-3
7298028142,-4,-13,2,12,8,16,-10,-6
7298043772,2,-3,-2,-13,0,-7,-6,1
7298043772,-11,-21,-5,-4,1,7,3,0
7298044490,11,19,10,-20,-1,-10,-6,2
7298044490,-20,-16,-4,-1,-13,-8,-14,-7
7298058107,15,28,5,40,0,-3,1,0
7298058107,-13,1,10,-25,11,4,1,1
7298065615,3,2,-13,8,12,13,9,-2
7298065615,-1,-11,-7,0,-7,-6,5,2
7298080637,-14,2,2,-25,-16,-18,-11,-14
7298080637,-1,-21,2,22,-1,-1,8,2
7298088160,1,-2,-2,-5,-10,2,-2,3
7298088160,7,24,-1,16,14,8,11,3
7298103746,10,13,-8,4,2,10,3,3
7298103746,-8,5,-5,14,4,-6,-13,-4
7298104443,10,-7,-8,-10,8,5,10,9
7298104443,16,16,1,-12,1,-18,2,5
7298118013,-15,3,19,5,-7,13,0,-6
7298118013,0,-7,-22,-29,-4,2,6,-3
7298125588,-10,-19,-11,0,0,3,-13,-5
7298125588,2,7,-1,6,-2,-10,4,4
7298140640,-11,-19,5,4,12,13,-4,-4
7298140640,4,17,7,5,-11,-14,-2,-2
7298148087,-4,-1,6,-2,-10,-9,-6,-7
7298148087,-8,-7,1,-9,-9,-1,-4,-2
7298163754,-5,-6,-12,-12,1,-16,8,-6
7298163754,5,3,-2,7,2,19,6,7
7298164489,-5,6,1,4,-1,12,-12,-7
7298164489,-7,-5,3,-5,4,8,-15,3
7298194485,24,-21,-15,-3,3,-11,21,4
7298194485,-15,-19,2,9,0,12,-7,2
7298195141,-6,-30,-3,-2,-6,-5,-8,-7
7298195141,-19,-16,5,-4,2,-2,10,-4
7298200576,11,-7,-1,-4,0,-13,-13,-4
7298200576,6,-10,-4,-1,-6,0,-16,0
7298208119,0,3,4,1,0,-4,-4,-1
7298208119,4,-6,-7,-5,-6,-2,-3,-4
7298223760,-13,3,0,1,3,-3,-9,2
7298223760,-4,-2,0,2,-4,-10,12,-5
7298224443,0,3,-1,1,0,-6,8,4
7298224443,1,-8,-2,-3,0,10,-2,-1
7298238115,0,8,-1,1,0,4,0,2
7298238115,3,-1,2,-1,-4,-15,-11,0
7298245631,16,22,2,-1,2,14,6,5
7298245631,-1,9,0,4,-3,-10,-1,-4
7298260643,-26,-62,-9,0,4,15,17,-3
7298260643,0,16,-6,-13,-10,-15,8,0
7298268099,1,31,11,26,6,8,-19,-3
7298268099,12,15,-6,-9,-4,-8,1,6
7298283766,-31,-70,-16,5,-7,-6,-10,-15
7298283766,8,64,4,-5,-9,-4,-1,2
7298284496,6,-45,3,1,7,-18,-4,-5
7298284496,9,91,-13,-7,-1,11,2,-4
7298298072,14,15,15,6,2,5,-9,3
7298298072,27,43,22,7,12,13,11,10
7298305584,-42,-2,-13,12,-18,-25,-1,-10
7298305584,-9,-47,4,49,9,15,-6,-5
7298320595,3,5,-7,-80,2,-11,-4,1
7298320595,20,-14,-31,-31,-7,-4,-2,4
7298328077,25,21,34,54,4,5,4,14
7298328077,-33,-85,4,-35,8,-1,-9,-13
7298343749,-21,7,-15,-26,-7,2,7,-2
7298343749,7,2,-11,51,10,-4,0,0
7298344443,1,-13,11,-29,11,13,-1,-6
7298344443,-15,0,-1,3,-20,-6,-3,1
7298358077,24,42,19,10,-1,9,-1,8
7298358077,-12,-11,10,6,18,-5,-4,-2
7298365664,-6,-20,-10,-21,-28,-11,-5,0
7298365664,16,21,7,9,6,-4,1,2
7298380616,-2,16,-7,10,6,17,-6,2
7298380616,-14,-40,-13,-12,-26,-20,-6,-11
7298388108,-2,16,0,11,7,-8,-6,-9
7298388108,-1,8,-4,-31,13,-18,-2,-4
7298403732,3,16,-13,2,-36,23,0,8
7298403732,-5,-4,11,13,9,2,-1,-3
7298404423,12,15,-6,-15,-7,8,-7,2
7298404423,11,2,-7,6,21,-3,14,4
7298418026,-9,-12,9,42,12,-16,-3,-5
7298418026,-10,-31,7,17,-12,-7,-11,-12
7298425581,-3,-8,-19,-56,4,7,18,1
7298425581,7,-16,-7,12,-13,9,-15,5
7298440584,3,5,2,4,22,13,9,0
7298440584,-5,-6,11,24,-1,-9,-3,3
7298448016,-15,-19,-18,-16,-7,-13,-5,-9
7298448016,20,14,9,-4,-22,-8,-8,-1
7298463762,-22,-20,6,4,-5,-7,-1,-5
7298463762,-5,-4,-14,-19,12,11,7,0
7298464444,-6,-2,1,27,-6,-2,1,-2
7298464444,0,-4,2,39,17,17,11,1
7298478112,10,27,-1,-28,-7,-16,-7,2
7298478112,-15,-19,-23,-38,-5,1,-7,-8
7298493828,3,8,7,-1,0,7,5,3
7298493828,-5,8,2,0,-11,-6,-4,-2
7298500575,9,8,-2,7,-3,-11,-5,-3
7298500575,-3,14,11,-1,2,7,1,-2
7298508086,-4,7,-2,-9,6,-3,5,4
7298508086,-10,-10,12,-12,-19,-6,-5,-4
7298523758,6,-1,2,54,10,-4,-1,-2
7298523758,13,-5,-17,-46,-2,4,3,1
7298524486,-7,-2,-2,7,1,-1,-3,-2
7298524486,-20,-12,1,-12,12,13,9,1
7298538121,1,-2,-5,-14,-13,-2,-11,-5
7298538121,6,-2,1,7,-12,-9,-6,0
7298545603,-4,-4,-5,-3,-2,-10,-6,-5
7298545603,0,-4,-5,-3,6,-2,5,3
7298560541,5,1,1,-7,-1,5,-9,-5
7298560541,-5,-1,5,16,6,1,8,-1
7298568058,-5,-1,-5,-11,-15,-15,4,0
7298568058,20,9,-7,-12,-6,5,-11,1
7298583667,-16,-3,-4,1,-1,-1,13,1
7298583667,-17,-14,-3,2,-1,-11,1,-3
7298584410,15,5,5,1,0,8,-1,3
7298584410,3,-3,-3,0,3,5,8,0
7298598104,4,1,1,-1,3,0,3,1
7298598104,3,2,7,-1,-3,-4,1,-3
7298605579,-14,8,-1,7,8,-3,6,-2
7298605579,-1,11,-3,0,-1,-3,-12,-2
7298620616,3,-12,-7,-9,3,15,42,11
7298620616,3,5,16,13,-6,0,-5,1
7298628084,-6,-14,-21,-4,2,-1,4,-1
7298628084,3,7,1,-12,-7,-8,-5,-4
7298643769,3,1,-3,-2,-6,-10,-2,0
7298643769,0,-7,5,-2,3,6,-4,0
7298644486,9,-1,16,21,6,7,0,3
7298644486,-5,2,-9,-15,-4,0,-1,-4
7298658111,10,11,-3,-6,-4,-8,-7,-1
7298658111,-20,-23,-2,3,0,5,2,0
7298665610,10,6,7,1,-12,-6,-13,-1
7298665610,-12,-5,-11,16,10,-3,1,-3
7298680578,3,-18,-9,-20,2,-3,-10,-2
7298680578,12,29,12,26,-4,-1,-5,-4
7298688061,-11,-1,-2,-4,6,0,-2,-4
7298688061,18,-25,-4,-9,-11,-4,1,5
7298703730,-5,13,-1,-7,6,1,-4,-3
7298703730,-9,-5,-20,-5,13,10,6,-2
7298704428,7,12,10,-11,-7,-3,-2,-2
7298704428,-3,16,-2,27,-3,-9,-2,0
7298718081,-17,-33,-1,2,-9,-8,-11,-5
7298718081,21,1,2,-8,2,2,1,5
7298725507,-16,18,9,17,7,5,1,-1
7298725507,-2,-19,-6,-26,-5,-2,1,1
7298748732,7,22,3,-2,-3,-8,-7,-2
7298748732,-10,25,-1,5,3,3,1,-3
7298749445,18,21,-6,-11,-5,-4,0,-2
7298749445,-10,17,-5,-8,-13,-6,-6,1
7298763083,-16,-34,2,4,3,-3,0,-10
7298763083,23,-10,-3,-4,-3,19,-2,8
7298771257,-22,-10,-2,-5,-3,-3,3,-10
7298771257,21,6,6,7,11,-5,-7,6
7298778106,3,25,8,7,3,4,3,4
7298778106,-1,-11,-7,-18,-1,-3,4,-3
7298785589,3,-16,-5,5,8,3,4,8
7298785589,-19,-6,1,-8,-4,2,3,-10
7298800609,0,7,5,5,3,3,-4,-5
7298800609,-3,9,3,10,0,-8,0,6
7298808104,-3,-13,-4,-3,-20,-16,-11,-6
7298808104,-11,-15,-11,-6,13,-1,3,-5
7298822978,8,-1,-7,4,18,17,1,6
7298822978,18,3,3,-2,-7,-5,-3,-1
7298831238,-16,-3,-2,13,-7,-8,-8,-3
7298831238,1,-2,4,12,0,0,1,0
7298838064,-14,-13,-11,-30,-21,-13,-8,-6
7298838064,-19,-16,0,3,-4,1,3,-7
7298845484,7,0,2,5,16,6,5,3
7298845484,15,13,1,-5,2,-2,-7,-2
7298860606,-13,-4,3,55,-19,-5,-2,-5
7298860606,0,-8,-7,-38,11,-13,-8,-2
7298868079,8,17,10,6,1,4,3,3
7298868079,-24,-28,3,-41,-12,6,3,-5
7298883035,-27,-23,35,34,5,6,0,-7
7298883035,-5,-2,-35,-65,13,-1,-3,-1
7298891129,3,-10,0,-14,-23,-7,-4,-3
7298891129,8,-4,-9,18,10,0,1,5
7298906157,13,14,9,-11,-7,-10,-6,2
7298906157,-3,8,6,13,-16,-5,-1,-3
7298906937,-3,-28,-18,-17,18,15,7,1
7298906937,1,16,-6,-27,-9,-9,-1,-3
7298920543,-1,-16,8,13,8,6,-4,0
7298920543,-5,-7,-7,-10,-17,-8,-12,-2
7298927987,5,-3,-14,-14,3,-6,-2,2
7298927987,-6,-13,8,4,-16,-5,5,-8
7298943047,3,18,-14,-13,-1,9,-11,7
7298943047,-9,-6,15,15,8,-1,-22,-8
7298951250,-2,-5,-10,1,-4,-2,57,2
7298951250,-2,2,-1,5,-2,15,-40,2
7298958081,17,10,-6,-18,5,4,-10,5
7298958081,-28,-7,9,17,-6,1,0,-19
7298965608,34,-6,-8,-6,-5,-13,-14,12
7298965608,-6,11,4,3,-3,24,-16,16
7298980471,-16,-22,-17,-7,11,-5,16,2
7298980471,-5,41,14,18,-3,-3,-1,1
7298988079,-22,-7,5,8,4,0,1,-11
7298988079,12,-8,1,0,3,-11,-19,5
7299002940,8,-22,-15,-14,-9,-21,-8,-1
7299002940,24,-13,-4,8,-1,17,35,4
7299011270,-8,-5,6,-5,-5,2,-8,0
7299011270,5,-5,0,4,3,-8,14,4
7299026690,1,11,-5,-2,0,0,2,-7
7299026690,2,-4,-1,4,-2,-3,-3,3
7299027366,8,7,-2,-4,-3,0,-12,0
7299027366,-9,-2,1,3,1,2,10,-9
7299040552,-5,8,6,-1,2,-8,2,-6
7299040552,0,-2,-9,-9,-6,-8,-8,6
7299047986,5,7,15,27,0,6,-16,3
7299047986,-4,1,6,4,13,8,17,-6
7299063059,10,10,-20,-23,-2,-2,2,4
7299063059,-2,-2,-7,0,5,6,1,1
7299071284,0,8,12,6,-3,0,-9,-2
7299071284,-19,6,4,4,-1,-9,3,-10
7299086127,5,7,0,11,-2,-1,0,0
7299086127,-2,-11,9,-9,-10,-3,-3,0
7299087084,-11,0,-19,8,6,2,-4,-5
7299087084,10,4,8,17,-3,-8,6,2
7299100578,2,23,-9,-30,3,4,-1,1
7299100578,-8,-34,5,25,-6,-7,-5,-5
7299108054,13,14,-2,-28,-7,-4,-4,-1
7299108054,1,-2,-3,8,0,8,8,2
7299122973,-23,-10,1,3,-4,-6,-2,0
7299122973,13,5,-5,23,20,3,-2,3
7299131185,1,22,7,0,1,12,-1,2
7299131185,7,-3,-6,-4,-6,-8,7,-3
7299146272,9,19,11,3,-15,-8,-11,-2
7299146272,-26,-3,-12,-27,-1,-7,2,-6
7299146939,17,1,-7,-4,10,12,7,6
7299146939,-15,-3,-3,-7,-4,-5,-6,-4
7299160560,12,-4,8,-8,-18,4,1,-4
7299160560,-6,-1,-8,28,17,-15,-2,3
7299168085,-14,-15,-2,0,-2,13,0,-8
7299168085,8,-11,-7,-7,10,5,2,-1
7299183085,14,27,6,17,3,-3,18,13
7299183085,-4,-23,0,-15,-16,6,0,-4
7299191256,-7,-19,-2,-10,-13,-5,-8,-3
7299191256,5,-2,3,5,14,5,7,-4
7299206229,-7,1,-5,-7,4,-7,-4,-1
7299206229,3,11,2,-15,-21,-15,-10,-4
7299206921,-6,-8,9,10,6,-8,-6,-2
7299206921,-9,-1,-9,-10,-10,5,13,1
7299220576,3,-11,-2,-1,0,5,1,-1
7299220576,9,7,-4,-6,29,8,7,5
7299228027,-14,-27,-8,-11,-34,-14,-10,-6
7299228027,0,9,15,14,-1,-6,-11,-3
7299242955,-4,-17,-22,-12,1,-9,-5,-4
7299242955,1,1,7,28,12,10,4,-1
7299251296,1,19,-7,4,-3,5,4,-1
7299251296,-1,-4,3,-11,-33,-9,-9,-5
7299266200,-1,-17,-14,-39,15,7,2,-2
7299266200,-4,5,17,-15,-12,2,3,-1
7299266960,-14,0,-11,17,16,-6,-1,-4
7299266960,10,2,7,-26,9,5,0,2
7299280536,-18,-39,0,-21,-12,-7,-14,-11
7299280536,3,0,-5,13,-16,-7,-7,1
7299288059,4,1,-12,-17,4,-13,10,5
7299288059,-1,8,-1,-19,-10,4,0,-3
7299303062,2,3,1,21,5,9,8,3
7299303062,0,0,-4,-10,7,13,6,0
7299311241,-5,-6,4,5,-3,-4,-15,-5
7299311241,-1,5,5,14,-5,-12,2,2
7299326198,11,19,12,15,7,5,-2,4
7299326198,-4,-4,-4,3,-6,-7,3,-4
7299326957,-3,-2,7,9,4,4,-3,-1
7299326957,-6,-8,-16,-14,-4,-12,-15,-12
7299340546,4,2,0,14,6,8,20,13
7299340546,-5,-1,0,-2,-3,-2,7,-2
7299348073,7,-9,2,-8,9,8,-6,0
7299348073,14,7,-11,-2,-2,-22,5,2
7299363032,-4,-2,-8,6,-2,6,-38,10
7299363032,10,1,-2,-3,-6,-2,15,-21
7299371215,-20,1,0,-8,0,-6,36,-1
7299371215,-6,-19,-1,8,1,-7,-4,-7
7299386147,-4,-3,6,17,3,6,-6,-5
7299386147,10,-7,-1,-6,-4,-4,-20,4
7299386955,-1,-10,-6,-7,0,6,-13,1
7299386955,9,-5,2,7,2,5,22,2
7299400558,-5,-18,-2,4,-6,-14,0,-12
7299400558,-10,-5,1,1,1,0,-5,3
7299408073,-4,-17,-8,-8,-4,-1,5,-5
7299408073,-6,3,-2,0,0,6,-12,7
7299423067,2,12,5,1,1,-13,0,-4
7299423067,6,5,0,4,0,0,-9,4
7299431241,8,19,4,1,0,-2,-9,1
7299431241,-2,-4,-2,4,3,8,5,1
7299446289,0,5,-6,-21,-17,-10,-4,-3
7299446289,-4,-6,-1,1,-3,-2,-2,2
7299446884,0,6,16,5,6,5,5,3
7299446884,1,1,-27,-13,14,12,-3,-1
7299460587,-14,3,2,8,2,3,11,-3
7299460587,-9,1,-7,-14,-15,-6,-8,1
7299468000,-15,25,15,26,-1,-14,-9,-3
7299468000,9,5,12,-8,-3,-1,-9,0
7299483012,-14,3,-39,-42,-4,-6,1,-4
7299483012,-5,10,13,0,0,3,2,3
7299491275,25,-4,-11,5,9,-1,-4,2
7299491275,-14,39,10,9,-11,-3,0,-5
7299506256,22,14,13,-3,8,2,1,0
7299506256,-11,3,12,19,-17,-7,-3,2
7299506939,-3,0,13,5,14,4,-1,-5
7299506939,7,-25,-39,1,10,6,-2,5
7299520577,8,4,31,35,-10,0,2,0
7299520577,7,47,-20,-20,18,7,5,1
7299528111,-8,3,20,3,-19,-3,-4,1
7299528111,-13,-1,-16,0,-1,-7,-6,-3
7299543096,-5,7,3,4,-5,-2,-2,0
7299543096,-4,-23,10,22,8,-1,-3,-5
7299551284,12,-15,-24,-24,-1,0,11,-2
7299551284,-8,13,6,-8,-8,-1,3,-2
7299566179,14,8,-1,3,-4,-8,-11,-2
7299566179,10,-20,-1,-11,1,5,16,5
7299566942,-17,9,-3,-10,-12,-13,-22,-19
7299566942,5,-57,0,25,14,18,17,15
7299580509,-9,15,5,-4,4,3,-3,-13
7299580509,-3,-7,-10,-8,2,3,-6,-5
7299588044,14,4,-8,-1,2,2,-13,0
7299588044,-2,-8,9,-6,-17,-6,22,0
7299602971,-8,-23,5,11,-6,-16,-1,2
7299602971,-4,-12,-21,-33,-17,10,-15,6
7299611276,-2,-3,-3,10,42,-12,1,9
7299611276,3,8,0,-7,-6,24,-3,-6
7299626175,3,-1,6,5,3,1,1,4
7299626175,-1,3,10,-2,-6,-21,-12,-7
7299627069,1,-14,-10,-32,-33,3,10,-1
7299627069,-4,27,23,15,6,-20,17,-1
7299640541,-5,-14,-28,-2,14,13,2,-1
7299640541,9,15,30,13,-8,6,9,0
7299648058,-7,-21,-41,-22,20,12,10,3
7299648058,-10,-19,-12,-6,-10,-11,-2,-3
7299663042,11,18,19,32,-31,-9,2,1
7299663042,-6,-16,-30,-44,3,3,-1,-9
7299671214,2,-5,-1,17,9,-14,-6,5
7299671214,-16,-8,11,-45,-11,15,-12,-12
7299686202,1,-10,-27,5,10,-1,0,3
7299686202,-3,-14,3,14,2,-5,0,0
7299686989,6,24,25,31,-23,-22,-15,-3
7299686989,5,3,10,11,11,9,-1,3
7299700509,-3,-7,-2,-37,11,4,3,1
7299700509,-6,8,13,5,-19,-23,0,-4
7299708069,-2,-10,-18,-12,2,19,2,-1
7299708069,2,7,11,18,-1,-10,-17,-4
7299723059,-6,-3,-2,-5,-2,10,12,0
7299723059,8,17,-1,9,9,4,0,-9
7299731208,0,0,13,-9,-14,3,-1,14
7299731208,-8,-1,-14,0,1,-16,-11,-17
7299746199,6,7,2,6,8,-10,-10,14
7299746199,-8,-3,-8,-4,-4,6,-16,-14
7299746992,4,-12,7,0,-2,-1,-6,2
7299746992,-7,-2,6,7,3,-2,-23,-8
7299760435,-5,-21,-15,-16,-5,0,6,-5
7299760435,-8,-11,0,11,3,-3,-4,3
7299768070,-3,-2,-2,-1,-6,-11,13,-7
7299768070,2,-7,-7,-6,-2,20,-18,11
7299783054,8,-13,4,2,-4,-7,-5,11
7299783054,1,-10,-7,1,7,7,24,5
7299791164,6,1,0,2,-1,0,4,-9
7299791164,26,2,-6,-3,-3,-10,-1,13
7299805457,-18,-13,4,-3,-3,2,6,-18
7299805457,-20,11,0,6,1,0,5,15
7299813641,-3,0,1,-1,-3,7,-9,11
7299813641,-5,-6,-1,1,-2,-12,6,-15
7299820558,-7,-1,1,3,7,7,2,13
7299820558,-7,-7,-5,0,1,-14,-10,-5
7299828077,8,6,2,-2,-3,17,9,3
7299828077,9,8,-1,-5,-5,-11,-7,3
7299843060,6,21,9,1,-3,1,3,-2
7299843060,8,-21,-20,-3,-4,-7,-12,-15
7299851224,-1,20,-5,1,9,12,8,3
7299851224,-38,-15,-2,0,-3,-9,-3,-5
7299865535,-18,-45,4,-15,-17,-8,-14,-16
7299865535,27,58,1,-29,-2,8,10,9
7299873776,-24,-76,-31,35,12,-9,-13,-12
7299873776,15,50,-12,-11,-7,-5,2,-3
7299880503,23,3,-9,32,40,24,16,10
7299880503,-55,-64,-18,-6,2,0,1,-9
7299888045,-4,-7,26,-15,4,-13,-10,-11
7299888045,30,45,0,-19,-6,6,6,10
7299903050,-36,-23,37,46,-3,-5,-6,-11
7299903050,47,45,-3,-35,-11,-6,-10,5
7299911244,-33,-60,-4,21,-22,-8,-6,-9
7299911244,12,5,-8,13,13,-3,-4,3
7299925503,-12,23,12,-11,1,10,17,1
7299925503,-4,-10,4,9,17,7,-10,-2
7299933659,-6,16,-9,-31,-11,-5,-9,2
7299933659,10,3,14,13,-5,-22,5,3
7299948572,12,-7,-21,1,-18,3,-17,-1
7299948572,-10,0,22,30,4,18,16,-1
7299949472,18,60,18,13,17,17,1,1
7299949472,-10,-12,0,14,26,17,3,1
7299963044,11,18,-18,-40,-33,-22,-11,-5
7299963044,-11,2,9,17,3,-21,2,-4
7299971272,21,15,-2,-27,-10,-8,10,2
7299971272,-17,-39,0,12,-14,16,-9,1
7299985498,3,-8,2,0,22,2,25,2
7299985498,14,2,6,21,2,8,-2,2
7299993707,-7,-14,-13,23,18,-5,18,1
7299993707,-16,-20,-4,-7,-25,-18,-10,-8
7300007896,-2,-1,-10,-23,-16,-4,-1,-7
7300007896,12,-3,3,9,4,-5,-3,3
7300016881,-1,9,4,-3,18,11,-1,-4
7300016881,-13,-10,-7,-40,-29,-25,-1,-6
7300022945,5,1,-11,11,18,4,-5,-1
7300022945,6,-5,8,14,-17,-11,-5,2
7300031886,-1,13,4,7,8,18,-1,0
7300031886,-8,-4,-3,-15,7,11,6,-3
7300045360,10,13,1,6,1,-3,0,5
7300045360,-12,-10,5,26,9,-7,-6,-6
7300054358,1,-4,-4,-39,-26,-11,-5,-3
7300054358,5,1,6,24,2,3,2,3
7300067904,2,12,-16,-22,-7,-12,-13,-7
7300067904,-3,3,2,8,6,6,4,3
7300076886,6,13,15,-3,-18,-4,-1,4
7300076886,-5,-10,-25,-8,24,9,7,-1
7300082960,-1,5,-2,0,-8,0,-3,-1
7300082960,-2,-3,-12,-8,-4,-3,1,-1
7300091892,7,-1,-3,-32,-23,-6,-1,-3
7300091892,-7,1,5,14,10,0,-3,-2
7300105444,-7,3,6,0,2,0,-6,-2
7300105444,2,-3,-8,-10,-7,2,2,1
7300114364,-1,4,9,23,10,-5,2,1
7300114364,2,1,4,-11,-11,0,3,-2
7300136755,1,-6,-5,-7,-1,9,-15,-5
7300136755,-6,-5,-2,-9,-3,-7,13,2
7300138373,-6,-5,-7,-9,-7,2,0,-11
7300138373,2,1,-1,8,5,-13,-10,1
7300142897,-6,2,4,-1,-8,-8,-2,-8
7300142897,10,2,-13,-15,2,5,-24,4
7300151910,-15,-12,-4,4,-3,2,4,6
7300151910,-5,-8,-3,0,-1,5,3,2
7300165350,-3,-13,6,2,3,-3,-3,-4
7300165350,-1,-1,-6,-11,-3,-5,-16,-4
7300174388,-8,10,-5,1,-2,-4,-1,-5
7300174388,0,-5,5,3,-3,-4,-2,6
7300187921,0,9,2,-5,1,-3,-7,-2
7300187921,-1,-4,1,-3,-2,4,5,0
7300196913,19,-3,-4,1,-1,-6,-3,6
7300196913,-4,1,2,0,1,10,2,-2
7300202896,-14,-8,-6,-2,1,-9,2,-1
7300202896,-13,-10,-1,-3,-2,4,6,-6
7300211879,5,0,-1,3,2,1,-4,-2
7300211879,3,1,6,-6,-6,-2,-1,-2
7300225345,4,1,-12,-9,8,3,0,-1
7300225345,6,9,9,35,3,2,5,10
7300234396,-7,-6,-2,8,2,-1,-3,-2
7300234396,4,3,-10,-14,-6,-2,0,-5
7300247928,-10,5,21,6,-10,-6,1,2
7300247928,-12,-12,-24,-22,12,6,4,-6
7300256892,13,2,-7,-9,-2,-2,2,0
7300256892,6,2,10,19,-3,-3,0,-3
7300262922,-16,7,3,-14,-1,-3,-4,-6
7300262922,10,-2,0,22,4,4,2,1
7300271906,7,-4,-19,-24,2,5,-1,-2
7300271906,-20,0,0,2,-4,-2,-3,1
7300285489,10,4,21,25,-15,-5,-4,1
7300285489,6,4,-10,-20,14,-2,0,0
7300294414,2,6,-9,8,-1,-1,-1,2
7300294414,16,2,14,16,0,0,-1,-2
7300307931,-7,-6,-15,-15,-5,-8,-2,4
7300307931,-19,5,19,23,2,1,0,-10
7300316911,-8,-5,-21,-39,-4,-5,-4,-4
7300316911,1,2,-8,-14,1,6,-9,0
7300323021,12,8,2,9,2,10,-3,1
7300323021,13,8,6,-20,-17,0,12,3
7300331912,-6,-2,15,18,2,-5,-4,-1
7300331912,-9,-6,-9,25,18,-4,2,-4
7300345427,0,-18,-12,-9,-3,1,5,-1
7300345427,2,5,8,8,-6,-4,-3,-2
7300354397,-3,3,-6,-17,-5,-8,-3,-4
7300354397,10,-1,-3,-10,-8,-11,0,1
7300368016,-20,-10,-9,-4,6,13,2,-1
7300368016,-16,-12,9,-14,-20,-12,-10,-2
7300376914,16,-4,11,24,-13,-1,2,1
7300376914,-3,5,-5,20,41,25,12,3
7300391867,5,-2,-2,20,36,-13,2,3
7300391867,1,-5,1,-28,-26,3,-17,-8
7300393328,1,-1,7,14,-2,-5,-7,-1
7300393328,-20,-11,-20,-44,-41,-22,-3,-7
7300414368,14,5,7,27,6,-5,-4,3
7300414368,-5,-8,-9,1,1,-2,3,-4
7300415914,-5,1,0,-19,-6,-3,-32,0
7300415914,12,-5,-9,8,16,-2,6,2
7300427899,9,15,10,-14,-34,-8,-7,-6
7300427899,2,5,-4,-22,39,17,2,8
7300436917,-6,4,2,21,-9,-3,-11,-4
7300436917,-7,-6,-11,-13,-23,-7,-10,-10
7300451740,-7,1,-23,-26,-23,-26,22,9
7300451740,15,4,10,28,13,15,12,-6
7300453337,-11,2,29,67,6,-1,-6,-4
7300453337,0,3,22,-41,10,23,31,3
7300465529,-3,7,-16,-16,-1,-29,-8,-8
7300465529,-5,-14,-26,-36,-15,1,-15,-4
7300474364,-11,1,-4,-13,8,-5,11,-5
7300474364,-3,-8,14,26,-13,-21,-21,-4
7300488060,-2,-13,9,7,-4,29,-15,-5
7300488060,-2,-4,-12,-10,5,-10,19,1
7300496911,5,7,4,15,7,0,10,0
7300496911,4,2,8,-4,-9,4,-14,1
7300511839,2,-6,-8,-5,12,17,24,1
7300511839,-8,10,6,23,-2,-23,-17,-2
7300513388,0,-3,-9,-23,-4,22,6,1
7300513388,10,20,2,8,4,-6,12,10
7300525516,-9,-8,-3,0,8,18,0,-8
7300525516,8,3,-1,10,-7,-11,-4,2
7300534440,-9,-22,-4,-16,-5,-4,-6,-1
7300534440,-12,-22,-6,-5,3,0,6,-4
7300548010,5,-9,6,13,7,13,3,3
7300548010,3,-12,3,-10,-17,-34,-16,-1
7300556937,5,-4,-6,-13,3,19,10,3
7300556937,4,-6,-1,14,8,6,-7,-3
7300571853,-8,0,4,0,4,-9,-6,0
7300571853,0,-9,-7,3,-3,3,6,-2
7300573371,1,0,0,-9,3,-6,2,0
7300573371,-2,2,-6,-3,-4,3,-5,-5
7300585488,8,-1,6,-8,-10,-10,-4,0
7300585488,0,2,-6,7,5,8,-2,3
7300594338,-4,-1,2,-1,-1,1,0,-5
7300594338,-14,6,7,-6,-7,-4,-3,1
7300608735,1,-2,2,9,3,-1,-7,-2
7300608735,9,6,-18,-20,0,4,-2,4
7300615503,14,10,-1,2,-4,-7,-1,2
7300615503,-31,-13,-10,-1,-2,1,3,-4
7300631733,22,6,-8,-8,3,0,-3,4
7300631733,-6,7,0,-4,-10,-1,-2,-2
7300633307,-6,0,2,4,-2,-3,5,-1
7300633307,9,10,-1,-12,0,-8,-9,-2
7300645553,-8,5,7,14,-6,3,-2,-2
7300645553,8,6,21,-3,7,6,4,0
7300661930,4,-4,-22,-10,4,0,3,1
7300661930,-32,-12,-2,11,-3,-5,-6,-8
7300668713,-5,-9,-4,-6,1,-3,0,-1
7300668713,8,17,19,-1,-2,6,5,2
7300675508,-26,-6,-1,15,6,-9,1,-2
7300675508,25,-12,-13,-16,-2,7,-3,1
7300691868,11,2,4,8,3,-2,-4,-1
7300691868,-3,-4,0,15,5,17,7,2
7300693343,1,21,9,-4,-1,-9,-1,-3
7300693343,-11,-5,-2,8,6,6,4,-3
7300714333,1,14,-2,-17,-17,0,-5,3
7300714333,1,-12,-15,-1,-2,-13,-8,-3
7300715822,11,5,0,3,0,-3,4,1
7300715822,6,-1,-5,-9,1,14,8,4
7300728712,-37,-23,-2,-6,-2,-11,-4,-6
7300728712,-19,-14,-1,-11,-9,10,1,-3
7300735524,8,-3,-8,-10,-3,5,1,3
7300735524,16,10,5,16,11,-18,-3,2
7300751898,-2,-11,-4,-11,-11,1,-6,-4
7300751898,0,-5,-8,-8,-43,-15,-4,1
7300753357,-6,-9,4,-5,-4,1,-6,-1
7300753357,15,0,4,1,-5,-1,-3,1
7300765449,-1,-1,-3,9,24,13,8,0
7300765449,-10,3,2,2,5,-9,-3,-1
7300774390,3,-1,-2,-18,-28,1,-8,-5
7300774390,3,-3,2,16,13,11,4,6
7300788674,1,3,-7,-32,-20,-26,-14,-11
7300788674,-1,-1,15,48,28,32,10,1
7300795511,-1,2,-18,-16,32,0,5,4
7300795511,2,-6,-3,-5,-24,-9,-5,-3
7300811847,-11,-15,3,-17,0,5,1,-3
7300811847,-2,2,-2,1,-6,-18,-8,-1
7300813344,4,12,-4,-3,-14,-14,-4,-1
7300813344,2,19,24,26,10,1,-3,-3
7300825439,18,17,-14,17,5,2,7,4
7300825439,-14,-6,-14,-27,-10,-11,-10,-9
7300834323,-6,-7,9,26,13,7,3,0
7300834323,-7,-12,-24,-46,-13,-8,-7,-8
7300848683,4,-4,9,12,-3,3,-1,1
7300848683,2,9,-3,-21,-3,-1,5,1
7300855535,-4,-5,-6,24,18,2,1,1
7300855535,-3,-4,-5,21,0,5,3,-5
7300871897,-2,6,3,4,-2,2,-4,-1
7300871897,-9,-20,-10,0,5,-3,1,-6
7300873361,7,-4,10,-10,-13,-10,-3,1
7300873361,1,1,1,-1,-6,17,-4,2
7300885501,6,1,-6,4,13,-3,0,4
7300885501,-3,6,1,-1,1,11,11,-1
7300894411,-9,-3,1,-7,-10,-7,-4,-5
7300894411,3,9,6,-4,9,-1,7,5
7300908625,0,-11,-9,-4,0,-6,-7,-8
7300908625,14,6,7,2,0,2,35,14
7300915512,-14,-4,-1,7,9,8,10,-16
7300915512,-6,0,-3,-6,-1,10,-16,13
7300939384,2,4,1,-1,-7,-4,13,-2
7300939384,-23,-20,0,5,-2,-27,-35,-9
7300940920,6,-11,2,-6,5,25,22,10
7300940920,17,5,-4,-8,-6,-7,-1,-3
7300945537,13,2,6,4,1,-16,11,1
7300945537,-2,10,-1,-2,7,15,-14,4
7300954329,-17,-13,0,-8,-13,-5,-2,-6
7300954329,7,-3,4,4,4,-5,-2,-6
7300968686,11,-11,-1,0,-2,2,-1,8
7300968686,6,-5,-6,-4,-1,-26,-11,-4
7300975498,3,-1,-1,-2,0,19,-5,-2
7300975498,-14,-4,4,3,-1,-20,6,-2
7300991801,-5,-13,3,2,5,23,-16,-2
7300991801,-15,-14,-1,2,1,14,13,-4
7300993387,16,0,1,2,-8,-14,-12,-1
7300993387,-28,-25,-10,-5,-1,-8,3,-7
7301005477,-21,24,-14,-26,-5,3,-9,1
7301005477,20,15,12,3,-1,7,3,-1
7301014346,0,-16,15,22,0,-5,0,9
7301014346,-8,18,-43,-11,-9,-3,-11,-7
7301028658,14,9,9,-40,-9,-5,-2,-5
7301028658,-4,35,-15,-3,4,2,1,0
7301035497,20,-34,21,17,-11,-10,-7,0
7301035497,-10,79,29,-38,-9,0,8,-1
7301051830,-47,14,-62,11,24,19,8,-7
7301051830,54,52,11,5,7,5,26,17
7301053360,-48,-96,-23,-24,-6,-13,-41,-19
7301053360,31,87,2,17,-11,-2,3,11
7301065508,50,31,11,-11,-10,-9,6,13
7301065508,-64,-26,-34,-14,4,1,-16,-23
7301074323,-1,-29,8,12,-8,-7,-3,5
7301074323,-19,-10,4,44,16,3,3,-11
7301088689,3,-21,-1,-17,-12,-8,-7,2
7301088689,33,6,18,57,-2,0,4,8
7301095476,2,8,5,-36,16,19,16,10
7301095476,-23,-57,-13,-17,-4,-10,-25,-11
7301111770,-2,-9,13,20,10,-2,4,-2
7301111770,8,5,11,-2,-10,-14,-16,2
7301113313,0,40,-16,-5,-14,2,-12,-7
7301113313,19,11,13,1,-13,-9,13,-3
7301125487,-6,3,-10,-7,2,9,-3,-1
7301125487,2,-20,7,-10,12,0,3,-4
7301134386,1,51,3,8,-5,-3,-8,2
7301134386,4,-42,-6,0,8,10,9,7
7301148676,-7,-18,13,11,-24,-7,-4,-13
7301148676,-12,-35,-9,-12,0,-11,16,-4
7301155470,7,13,-9,16,2,1,3,-1
7301155470,3,-22,15,-4,11,6,6,0
7301171887,-16,-21,10,30,21,5,18,4
7301171887,2,5,-3,-20,-9,14,-5,-1
7301173312,-8,-14,-14,-20,-4,-14,4,-5
7301173312,-6,-23,-5,-24,-41,3,-11,-2
7301185527,-13,-14,11,29,39,-5,-3,-9
7301185527,3,-3,-10,11,-4,5,-2,0
7301194332,-14,0,-16,-57,-16,-8,-6,-5
7301194332,6,-12,1,21,1,-13,-2,0
7301216860,16,27,3,-12,-24,2,-6,3
7301216860,-14,-18,-4,-15,3,-2,-9,-8
7301218344,-17,-24,-15,-4,7,10,10,-5
7301218344,-1,10,-3,23,14,1,-3,-2
7301231890,11,4,-11,-50,-16,-12,-7,-4
7301231890,-5,-6,6,1,-12,-10,-11,3
7301233374,8,34,11,1,2,2,8,4
7301233374,5,-35,-6,11,19,5,8,2
7301245932,-8,8,17,17,-6,-11,-9,-3
7301245932,-35,-17,-7,1,-3,9,-2,-5
7301254347,15,25,4,14,1,-9,4,5
7301254347,12,10,2,-6,4,-3,0,3
7301268712,11,-2,-7,-12,-6,-1,3,4
7301268712,7,0,4,33,11,1,-2,3
7301275460,-8,6,-3,-2,2,-3,0,-2
7301275460,-4,6,-1,-8,0,-1,-4,-2
7301291763,4,5,8,10,-9,-25,0,2
7301291763,-7,-9,-4,-24,-2,36,-5,-7
7301293310,0,11,11,14,0,-1,3,-1
7301293310,16,9,4,0,1,1,9,7
7301305486,-10,-1,-6,0,3,10,7,4
7301305486,6,6,-3,-2,-8,-25,-9,0
7301314393,-6,-7,-7,2,2,2,4,-12
7301314393,-7,-11,-9,-22,-6,3,-41,1
7301328594,6,4,-5,8,-2,9,11,5
7301328594,16,10,3,4,7,-6,-1,1
7301335475,2,7,-4,1,2,1,-14,-6
7301335475,-11,7,4,0,0,-14,0,3
7301351866,-6,-20,1,8,1,7,-4,-1
7301351866,-2,-15,-3,-10,-7,-7,-3,0
7301353386,3,-5,0,-1,-1,-14,2,0
7301353386,-3,-9,3,5,-4,-1,3,-4
7301374290,7,-7,-8,-2,3,13,0,2
7301374290,-3,-3,-1,-8,-6,-13,3,-3
7301375823,-5,6,3,6,-2,10,4,-1
7301375823,4,4,-3,-5,2,-4,8,1
7301388714,4,8,0,4,1,1,2,1
7301388714,-15,-1,-2,-5,-4,-2,-2,-5
7301395487,4,4,-2,-12,-2,-13,-3,2
7301395487,-1,1,-3,8,3,17,8,-4
7301411734,7,-23,2,1,5,3,-7,3
7301411734,6,14,-4,-9,-8,-7,-3,-4
7301413271,-8,9,8,20,6,-2,-5,2
7301413271,5,7,-6,-19,-6,-5,3,-2
7301434307,-11,1,5,12,-6,-9,-2,-4
7301434307,2,3,-8,-14,9,10,2,3
7301435838,10,18,-16,-27,-4,1,1,-1
7301435838,2,-4,3,8,-4,-7,-4,-5
7301456840,-16,-18,-6,-1,6,9,1,-1
7301456840,10,18,4,-3,-7,-10,-4,-1
7301458286,-1,8,12,13,6,6,-1,-1
7301458286,-9,10,23,44,-3,-4,-2,-2
7301471709,0,2,-29,-46,-8,-9,-5,1
7301471709,12,-7,3,10,11,7,6,4
7301473327,7,9,-19,-21,-3,0,-1,4
7301473327,-8,-32,-4,-1,-2,0,0,-3
7301494306,-1,-5,5,12,-5,-6,-4,-6
7301494306,-8,5,3,-1,-6,-3,6,-4
7301495837,14,0,5,5,-5,1,-17,1
7301495837,-5,11,2,4,10,6,6,5
7301507981,-8,9,5,11,8,6,1,-1
7301507981,19,1,-3,-14,-4,-7,-5,1
7301523004,-15,-11,5,-2,-12,-11,1,-4
7301523004,-16,1,-10,-20,-14,-8,-4,-8
7301531817,18,17,0,15,8,7,3,3
7301531817,-20,4,1,10,-3,-4,1,-1
7301533334,12,-16,-1,-9,-8,1,1,6
7301533334,8,-10,-9,-19,16,10,5,4
7301554316,-14,-5,4,10,3,2,-1,-3
7301554316,5,-16,3,-4,-7,-9,-6,-2
7301555913,0,-1,4,29,3,-4,0,-2
7301555913,-3,-12,2,-10,-2,-4,-3,0
7301567940,12,3,6,10,-6,-2,0,-1
7301567940,1,-4,-9,-18,5,7,2,2
7301576914,-3,-11,-3,-9,3,1,6,2
7301576914,-2,0,1,6,3,0,-4,-3
7301591845,-2,5,0,3,10,7,-3,-3
7301591845,-9,1,15,32,-6,-3,-4,-2
7301593364,-4,-7,-10,-34,3,0,6,-1
7301593364,16,17,1,1,-4,-11,-2,0
7301614319,-23,-19,-8,-27,-22,2,2,-2
7301614319,4,9,-17,-8,-2,-7,-6,0
7301615793,-11,-24,5,28,3,-4,-10,-11
7301615793,0,2,2,-6,4,4,2,-1
7301627862,13,19,2,12,10,-3,2,5
7301627862,8,-2,-2,-10,-10,-3,0,0
7301636808,-8,20,8,5,-5,2,3,4
7301636808,10,-8,-9,-7,-7,-4,-5,-3
7301651872,-1,16,6,-1,-7,-9,-7,-6
7301651872,-11,-2,7,-13,6,0,1,-3
7301653359,10,12,5,16,7,5,4,4
7301653359,2,-4,1,-7,-6,-2,-1,1
7301674303,-21,-7,-13,-16,-5,-6,-4,-6
7301674303,4,0,11,11,0,1,-1,1
7301675777,-5,-2,-4,-9,1,0,-2,-1
7301675777,8,12,12,9,-1,-7,2,5
7301687981,0,-10,1,-4,-6,1,-2,-6
7301687981,-10,-3,0,1,3,5,5,-2
7301696829,0,-11,-10,-7,-6,-7,-7,-5
7301696829,-3,10,2,2,-2,3,2,3
7301711132,-3,-24,-15,-9,-1,-6,-3,-1
7301711132,-4,-7,-5,-2,0,8,2,-1
7301718012,11,14,3,5,-2,-6,1,1
7301718012,-7,-4,-2,3,7,8,-17,-2
7301734340,4,3,3,-1,0,-5,8,4
7301734340,-4,-3,-9,3,0,1,1,-1
7301735945,8,-2,-1,-4,-4,-11,-9,-1
7301735945,-14,-1,-5,-7,-5,3,-6,-6
7301747956,-7,-2,6,4,3,11,1,-1
7301747956,7,-9,-6,1,1,-5,11,4
7301756939,-7,-6,1,-2,-3,-7,-2,-1
7301756939,-11,-4,-3,-4,0,1,2,-4
7301772546,0,-2,7,6,1,-5,-1,-1
7301772546,0,-7,6,0,-2,-2,-32,2
7301778670,-6,-21,-1,0,2,4,-2,-1
7301778670,4,-18,-3,0,-2,2,9,0
7301793355,20,-1,-2,-1,-3,-2,3,2
7301793355,-15,4,-4,-4,0,-5,-10,-5
7301803303,1,4,-5,-1,0,3,7,0
7301803303,1,-1,-8,-8,-3,-7,-5,1
7301808771,0,4,0,-2,-2,-1,-3,-4
7301808771,10,6,2,3,3,2,4,5
