timestamp,emg1,emg2,emg3,emg4,emg5,emg6,emg7,emg8
6865875536,1,-6,0,-1,-2,-2,-2,-3
6865875536,1,9,-1,-2,0,-2,-1,0
6865876256,0,-2,-2,-5,-7,-5,-4,-1
6865876256,1,-4,-2,0,0,1,1,-2
6865877030,5,9,1,0,1,0,0,3
6865877030,-10,-7,-3,-5,-6,-5,-4,-4
6865877952,-3,-8,0,5,2,2,-1,-5
6865877952,3,2,-3,-3,6,6,6,2
6865888632,-2,3,0,1,-2,-1,-2,-1
6865888632,7,-3,-3,-8,-8,-2,-4,0
6865897210,-3,3,-1,10,10,1,5,1
6865897210,-5,0,2,0,-5,3,-14,-6
6865904938,1,-2,-2,-3,1,-3,-5,2
6865904938,-3,-6,-5,-9,-19,-21,2,-1
6865919251,-9,-5,-2,-6,-1,9,-2,-5
6865919251,12,2,0,8,11,6,14,3
6865927265,-11,-9,-6,-1,-4,-10,-7,-1
6865927265,1,-5,4,3,6,4,-4,-3
6865933608,6,10,5,5,-8,-7,-1,3
6865933608,-9,-7,-6,-12,-5,-7,-6,-3
6865948660,6,-2,-2,6,0,5,6,-1
6865948660,5,10,-4,-2,6,2,-6,-1
6865957220,-3,-4,-2,-2,-1,-3,9,0
6865957220,-5,-1,-1,-6,-10,-5,-9,-3
6865996759,4,9,1,5,4,5,3,1
6865996759,0,6,2,7,14,0,1,-2
6865997605,-4,-14,-1,-5,-1,-2,0,1
6865997605,-8,4,1,0,-6,-6,-6,-3
6865998422,9,3,-7,-13,-11,-8,-8,-4
6865998422,0,-6,7,7,0,-4,11,5
6866001582,-7,-6,-6,-4,-3,4,1,-6
6866001582,-2,3,8,8,10,2,-35,1
6866008408,-5,2,0,-5,-7,-3,21,-7
6866008408,5,-6,0,-6,-8,-4,9,6
6866015921,3,9,-2,-1,0,-5,-1,-1
6866015921,-6,-5,-6,-10,-8,-2,-11,-8
6866024762,3,-5,0,1,1,-8,4,1
6866024762,-6,1,-5,-3,1,0,0,-2
6866038962,2,2,4,7,0,19,-5,-1
6866038962,-1,-6,-2,-1,-3,-7,28,0
6866045913,-1,-4,-2,2,4,8,-20,-2
6866045913,2,7,-5,-6,-4,5,1,-3
6866053432,-14,-10,-3,1,-4,-13,-8,-5
6866053432,5,-7,-2,-3,0,1,28,4
6866068438,-2,4,3,-4,-2,9,-20,2
6866068438,2,1,6,-4,-2,-9,-13,-2
6866075845,0,0,-3,4,6,2,4,-3
6866075845,7,2,-3,-8,-6,-5,0,5
6866084766,-7,-4,3,7,0,-1,3,2
6866084766,5,-7,-16,-17,-3,3,2,-3
6866098987,-6,0,1,-4,-5,-5,-6,0
6866098987,-1,3,0,-1,-1,0,5,0
6866105803,-19,-19,-2,2,0,1,1,-1
6866105803,7,16,9,7,2,-1,-13,-4
6866113409,5,8,-1,-7,-3,-3,3,-3
6866113409,6,3,-4,2,1,1,0,7
6866128360,4,11,1,-2,0,-2,2,-1
6866128360,-1,-17,-1,3,1,-2,-2,0
6866144620,4,10,2,3,4,0,6,1
6866144620,-17,-40,-4,-4,-1,4,-5,-7
6866146215,31,11,8,5,3,-4,-3,6
6866146215,-10,89,29,9,-1,6,0,-1
6866159003,-19,-74,-14,11,6,-5,-8,-4
6866159003,-8,75,-4,-25,0,4,-1,5
6866165921,16,32,22,44,-3,1,6,5
6866165921,12,73,-27,-7,5,-2,-3,-2
6866173413,-18,-24,-34,-33,9,5,2,-3
6866173413,16,-85,11,-4,-12,-9,-8,-6
6866188373,-6,37,10,22,14,2,7,3
6866188373,18,-13,-1,16,-5,3,-1,2
6866195851,16,6,24,-8,-18,-9,-8,-5
6866195851,-6,14,-25,18,24,8,5,10
6866204737,-26,-19,-24,-35,-21,-11,-13,-16
6866204737,0,-19,1,-4,-5,-7,-8,-1
6866219065,5,33,5,24,24,21,17,7
6866219065,18,85,31,7,-6,-3,-4,-8
6866225798,8,-45,-13,-11,-4,-5,-5,1
6866225798,-42,-46,-3,1,0,-2,0,-5
6866233362,16,43,1,-20,-25,-17,-9,4
6866233362,-8,-74,-5,-8,-11,5,-7,-5
6866248388,-6,60,-1,7,23,9,14,0
6866248388,-35,-33,-12,-18,-15,-22,2,-8
6866255876,0,40,6,11,6,5,28,-3
6866255876,2,43,4,12,15,-5,-41,-4
6866264775,16,6,-11,-19,-12,-1,2,12
6866264775,2,-13,13,18,-19,8,0,4
6866279083,-8,8,-19,-36,18,6,12,1
6866279083,-3,24,-7,13,3,-17,-1,2
6866285770,-3,-15,0,-21,-16,11,0,-12
6866285770,2,8,13,-3,43,0,-3,5
6866301466,0,-12,10,14,-52,-9,-15,0
6866301466,-3,-75,-5,22,35,5,9,-4
6866308353,0,-25,18,50,-26,-24,-12,-1
6866308353,-6,-59,-35,-60,29,0,-3,-7
6866315869,4,-43,0,-15,-21,6,-10,-3
6866315869,-9,-30,-2,-24,9,9,14,-4
6866324753,-12,-33,-15,4,-14,-8,-1,-5
6866324753,12,12,5,39,-19,-10,-9,-2
6866338965,-11,-34,-1,-12,16,-5,-2,-3
6866338965,2,20,9,-13,-26,1,7,2
6866345846,-15,-17,-24,-1,7,-7,-11,-9
6866345846,3,-8,5,-25,9,20,2,-3
6866361587,-4,-15,-10,-17,7,0,-3,-4
6866361587,-2,6,6,20,-24,-6,1,-3
6866368385,1,-29,-8,-25,20,22,14,7
6866368385,0,8,4,0,-15,-8,2,-1
6866375908,8,30,0,15,7,-18,0,3
6866375908,-5,6,-11,-28,-11,17,-6,-2
6866390895,2,7,7,-9,8,-14,3,0
6866390895,-13,-11,-7,-20,-19,15,-6,-7
6866399052,2,10,29,35,12,2,-3,2
6866399052,8,10,-13,20,-6,-13,6,3
6866405865,-5,0,-6,-20,10,5,-14,-2
6866405865,4,-6,19,9,-13,-13,3,4
6866422055,5,13,1,9,-3,9,4,-4
6866422055,-5,-10,-10,-11,3,-1,16,0
6866428384,-13,-4,5,6,-4,2,-9,0
6866428384,-1,-7,-4,7,-4,2,20,-4
6866435748,6,-16,-9,-7,-3,-11,36,-7
6866435748,-1,-6,2,1,9,22,-44,-18
6866444736,-9,-7,7,-2,-6,-14,-3,5
6866444736,7,-6,-10,5,5,4,-6,17
6866459053,-3,-12,-6,-3,1,-9,-6,-12
6866459053,4,-3,1,-4,-9,1,3,3
6866465900,5,11,4,-5,-3,-7,-2,-5
6866465900,-20,-2,-4,3,5,-2,-19,-13
6866481555,7,-24,-13,3,-8,-9,-21,-2
6866481555,-6,8,17,3,3,-7,3,12
6866488263,14,26,2,-6,4,6,2,-2
6866488263,-22,-26,-13,-4,-4,-4,9,-1
6866495799,-1,60,8,9,5,7,-14,0
6866495799,-2,-56,-9,0,-3,-7,4,0
6866504763,1,25,9,-13,-5,-3,1,-7
6866504763,19,1,-14,12,4,2,0,4
6866519070,-32,81,-18,-10,-1,4,-9,-2
6866519070,17,-44,20,-27,-10,-4,5,7
6866525868,18,30,-26,-10,10,5,8,7
6866525868,-11,-66,-12,15,-5,-4,-11,-7
6866541556,9,10,23,10,1,5,-4,0
6866541556,-2,99,4,1,-7,0,14,7
6866548421,-5,-46,29,-7,-14,-6,-14,-13
6866548421,-11,-83,-59,-47,2,3,5,1
6866555828,45,10,32,25,3,0,0,17
6866555828,0,108,-17,-15,-7,-7,-4,-6
6866564721,-12,-48,9,35,-1,-1,1,2
6866564721,16,57,31,-16,-10,-12,-10,1
6866578997,-33,-38,-26,1,14,8,4,-8
6866578997,4,-38,50,12,3,-1,17,8
6866585925,-3,18,-6,-5,3,0,-26,-14
6866585925,-8,10,-8,5,-15,-8,4,1
6866601564,14,17,-18,-27,-11,-2,-4,1
6866601564,-15,-7,-26,18,18,-13,-17,-9
6866608321,-4,47,-1,-4,-4,8,14,9
6866608321,7,35,15,-8,7,10,4,-4
6866615867,21,47,17,-3,-31,-17,-12,3
6866615867,7,28,-21,-10,-29,-3,-18,-1
6866630891,-39,-13,1,30,36,29,23,-3
6866630891,18,45,5,-18,-14,-8,-8,-3
6866639096,-26,-47,-3,12,18,2,3,0
6866639096,13,-22,3,-2,-12,-11,5,-1
6866645860,15,-27,-12,3,27,-25,-5,-1
6866645860,-8,-36,19,12,-59,35,3,-1
6866661557,0,-46,-12,-43,27,22,16,6
6866661557,-8,-38,12,46,-5,-19,-2,-7
6866668412,0,-34,-35,-76,-10,-12,-3,-1
6866668412,2,12,20,46,11,-3,-3,0
6866675866,-2,-38,-20,-6,1,-3,-5,-1
6866675866,-5,-2,1,-11,-16,2,-4,-6
6866690889,-1,0,-2,-2,-13,-9,2,-1
6866690889,4,5,22,3,-4,-21,-11,-4
6866699054,-5,-3,-20,10,-21,-2,-6,-3
6866699054,3,-1,-26,4,47,13,10,5
6866705862,-4,-10,-7,7,-23,-5,-7,-3
6866705862,6,9,1,-25,18,-2,6,4
6866721578,2,-2,12,34,5,-15,10,2
6866721578,-7,-8,-9,-34,14,27,-3,-1
6866728336,8,6,-26,-3,1,5,-1,6
6866728336,-2,13,-6,11,14,7,4,-1
6866735820,16,26,30,36,-19,-24,-8,6
6866735820,-15,-12,-25,1,23,10,1,-6
6866750858,0,10,14,-1,-10,1,4,1
6866750858,-3,15,3,54,29,-3,-1,-2
6866759076,-5,-4,-17,-49,-11,-5,-2,0
6866759076,4,-2,20,20,-12,3,-1,-2
6866765831,2,15,-1,-20,-3,-1,-2,-2
6866765831,-3,2,4,11,15,0,-1,-1
6866781591,-10,-18,6,-14,-10,-2,-5,-4
6866781591,-5,-4,-6,-1,-4,-5,5,-2
6866788351,1,0,6,10,1,-11,14,-3
6866788351,-2,-14,-8,-25,-18,-5,-50,-12
6866795864,-1,-11,0,8,12,11,13,21
6866795864,-10,-16,-7,-9,-1,2,38,-15
6866810817,-3,2,11,11,-5,2,-25,-5
6866810817,-1,5,-5,-7,-1,-20,10,5
6866819095,9,3,7,3,9,9,-13,-15
6866819095,-6,3,7,1,-7,-7,-11,1
6866825883,-7,-5,0,-4,-10,1,-4,3
6866825883,8,4,-2,-7,0,-1,9,-7
6866841587,-13,-21,-1,11,21,17,5,-3
6866841587,-1,7,10,-4,-8,-6,-2,2
6866848388,20,6,3,11,1,7,-2,6
6866848388,0,16,-13,-30,-11,-6,2,8
6866855751,12,-31,0,0,-7,1,7,0
6866855751,-9,38,18,13,0,-4,-12,-4
6866870844,-4,-2,-17,-1,9,-1,2,3
6866870844,-26,-59,-13,-2,3,6,6,-7
6866879017,-10,10,19,5,-17,-9,-13,-5
6866879017,-16,-32,-33,-43,-5,-5,-7,-8
6866885718,27,27,-9,0,-1,0,1,4
6866885718,10,23,21,14,5,6,7,7
6866901450,-5,4,-11,-10,1,4,0,-2
6866901450,14,9,20,5,-5,-7,-5,5
6866908321,22,61,13,1,4,-2,2,5
6866908321,-38,-66,-30,-9,-5,-2,-2,-12
6866915797,-2,26,1,-8,-6,-3,-4,-3
6866915797,-8,-48,-2,14,2,-2,-4,-1
6866930920,-17,-6,1,-20,-6,-5,-3,-8
6866930920,21,70,13,22,3,-2,-2,0
6866938999,-8,-12,4,11,3,-2,-2,0
6866938999,9,60,-17,-14,-12,-6,-5,-3
6866945761,-25,-96,-11,10,-4,-5,-7,-6
6866945761,24,20,0,-15,5,8,9,11
6866960894,-30,8,-8,2,15,6,0,-7
6866960894,12,27,-7,-7,-7,-3,-7,-1
6866969693,16,16,21,16,8,6,4,-2
6866969693,6,60,1,-16,-16,-8,9,6
6866984718,7,-40,-17,-8,-2,-3,-15,-1
6866984718,-3,8,28,20,16,17,14,3
6866990932,-27,-22,-11,4,-8,2,4,0
6866990932,-18,-22,-8,-1,-22,9,-21,-5
6867006468,29,49,11,-2,-7,-12,21,3
6867006468,12,0,-3,-3,15,-16,-12,-2
6867007197,7,18,11,9,-20,1,5,-3
6867007197,-1,-5,-7,-5,35,3,-23,6
6867029009,-9,6,1,17,14,7,29,3
6867029009,-1,5,1,-15,-36,-5,-3,-4
6867029660,1,-2,0,3,16,10,-6,-2
6867029660,7,-3,-3,11,15,-9,13,1
6867044727,-3,-12,11,-11,-32,-10,-16,-6
6867044727,-8,-42,-20,-4,18,-14,-2,0
6867050756,-11,-13,-7,-24,-23,-2,-5,-5
6867050756,1,-9,-3,18,-19,3,5,1
6867066445,3,-14,8,18,34,-7,-5,-2
6867066445,-2,-24,-19,-37,-26,5,-4,-2
6867067175,-3,-16,15,41,10,3,7,1
6867067175,2,-3,-7,28,9,8,5,-1
6867089028,-5,-19,-3,-49,-7,3,2,1
6867089028,-1,4,-4,-27,-32,-11,-11,-1
6867089722,-1,21,-7,43,42,3,5,-5
6867089722,-7,-24,14,-14,-19,-10,-4,-5
6867104733,-1,9,-27,20,-2,5,-15,-4
6867104733,4,-1,22,9,-7,-10,8,3
6867110862,1,0,-16,-66,-19,7,-1,-1
6867110862,8,4,19,27,2,-8,0,0
6867126551,-13,-7,-23,-27,-7,-5,-9,-4
6867126551,-7,-9,9,11,9,6,1,-5
6867127216,1,0,-1,-18,-10,-11,2,2
6867127216,8,6,1,-1,6,6,4,-2
6867142263,-6,-22,-11,-11,-11,6,-10,-5
6867142263,-4,-7,-1,13,11,-14,-30,2
6867148285,-4,5,11,5,-2,2,0,-10
6867148285,0,-5,-12,-17,-2,-5,17,0
6867164743,-5,-3,11,8,5,22,27,6
6867164743,10,6,-7,7,6,-7,6,-9
6867170879,-9,-10,6,7,0,-11,-31,5
6867170879,-6,-17,-2,-13,-1,-4,31,-3
6867186434,-5,1,3,2,0,-13,-33,-2
6867186434,11,-10,0,9,3,8,8,6
6867187333,-1,-6,2,-8,-4,-1,32,-15
6867187333,10,-1,-12,-14,7,5,-84,28
6867202303,-14,-9,-1,4,-7,-8,-15,-26
6867202303,-8,-15,-5,3,3,5,10,0
6867208348,-6,-11,-4,-2,2,2,3,-4
6867208348,-13,6,12,3,0,0,2,-5
6867224738,14,2,-13,-3,-6,-8,1,1
6867224738,-29,-4,2,1,3,9,-2,-1
6867230838,37,11,-7,-12,-6,-8,-11,9
6867230838,-21,-22,-15,1,4,-5,5,-8
6867254067,37,37,27,12,-3,6,7,5
6867254067,-1,5,7,17,4,5,18,5
6867254587,-78,12,-20,-37,-13,-9,-19,-20
6867254587,13,-4,-14,4,-2,9,17,-2
6867269062,-2,-9,-39,-29,3,-1,3,4
6867269062,-13,-95,-16,2,-5,0,-17,1
6867269702,39,-1,63,55,8,5,12,22
6867269702,-31,-66,-47,12,1,-9,-6,-15
6867284716,-11,116,22,-15,-4,-12,-4,-5
6867284716,25,-46,-48,-29,4,0,-2,2
6867290843,-23,45,13,11,-2,-1,-2,-8
6867290843,-17,-69,10,1,1,-2,9,-7
6867306535,32,23,11,-7,-11,6,-1,10
6867306535,-10,31,24,-3,8,-3,-5,1
6867307192,14,25,18,8,-11,-3,2,4
6867307192,10,46,-22,-30,5,1,-14,-3
6867329036,-30,-23,5,-5,1,-25,-22,-13
6867329036,32,66,30,11,-3,18,16,7
6867329689,4,-9,-36,-25,7,10,9,6
6867329689,-9,38,30,23,-19,-11,2,-1
6867343333,-7,-24,-4,7,-1,6,-17,4
6867343333,-15,35,-6,14,26,-11,1,-10
6867350840,-1,-24,-20,-22,-24,-11,-52,-2
6867350840,11,34,12,16,38,14,21,-6
6867366552,5,-18,17,23,-19,10,15,7
6867366552,-3,-16,1,7,-3,7,-3,7
6867367214,2,-13,-8,-15,7,-24,9,-4
6867367214,16,9,10,-21,-21,9,-23,-3
6867389081,-29,-60,-10,40,54,-2,-2,-4
6867389081,-11,-15,-5,-28,-13,-10,11,-6
6867389672,7,-15,-5,13,21,33,8,4
6867389672,5,-5,8,-3,-16,-22,6,-4
6867403356,8,-22,-16,-32,-3,17,20,3
6867403356,-1,2,-3,-11,8,-6,-8,-2
6867410884,-3,-18,4,-5,-4,-5,-1,-4
6867410884,-2,-3,20,50,4,5,9,1
6867426533,-5,-7,-40,-86,-21,2,-6,-4
6867426533,8,25,3,30,-10,-7,0,3
6867427217,2,1,-8,-42,21,-8,0,-2
6867427217,-8,2,8,25,4,4,2,0
6867449083,-4,14,14,2,-24,-21,-3,-4
6867449083,3,10,-20,-37,-5,12,-3,-4
6867449707,2,6,13,56,-9,-7,5,1
6867449707,-3,14,-6,-63,-13,-4,-6,-2
6867463408,3,-5,-2,31,5,1,-3,0
6867463408,-5,0,8,-3,20,10,1,-3
6867470867,1,-3,1,25,-12,-20,7,1
6867470867,8,13,-1,0,-10,-3,-11,-3
6867486435,4,0,0,4,6,3,0,-1
6867486435,-3,-13,-3,-9,-13,-4,-6,-5
6867487183,-8,-17,-10,3,9,12,9,2
6867487183,9,-1,-5,-8,-5,-6,-4,1
6867509078,-5,-2,1,10,1,-10,2,-1
6867509078,8,1,13,19,-1,11,6,2
6867509728,-5,-9,-1,-19,-12,2,1,-6
6867509728,0,3,-8,-9,6,-18,-22,2
6867523309,3,-5,5,13,-3,9,12,3
6867523309,3,9,4,5,-2,16,-4,2
6867530789,4,5,1,6,19,10,4,4
6867530789,-29,-8,-6,-14,-3,0,14,11
6867546431,2,-4,7,9,4,-15,1,0
6867546431,-2,-6,-4,5,-6,-4,9,-6
6867547163,-8,1,-2,-6,-6,-3,3,-2
6867547163,15,3,-1,-6,-1,5,0,-2
6867562187,6,5,-1,3,-2,-2,-6,3
6867562187,-8,-3,1,2,1,-8,14,-7
6867568310,2,-2,0,-1,-1,-2,-26,2
6867568310,0,-12,-1,-6,4,23,0,4
6867583330,-9,-7,-1,2,-7,-6,1,-3
6867583330,32,15,-2,-5,-6,-9,-27,-2
6867590809,-17,21,-4,-8,-5,0,-3,-4
6867590809,-17,-24,0,5,5,-2,5,-6
6867605752,8,2,0,9,-1,2,-2,-3
6867605752,-2,-1,0,6,6,2,-5,5
6867613327,-15,-29,-7,-4,-10,-6,-2,-4
6867613327,24,21,17,21,5,2,7,2
6867629081,-12,6,-12,0,7,1,-2,-5
6867629081,8,67,11,6,-10,-9,-1,-2
6867629710,-13,-39,-26,-25,-4,-1,2,3
6867629710,0,25,8,4,-14,-8,-1,-6
6867643380,4,-7,-19,-22,8,6,1,4
6867643380,-3,-24,-3,21,1,-4,-5,-1
6867650854,11,16,-3,-13,2,7,1,-1
6867650854,-6,48,1,-6,-6,-5,-6,-5
6867665782,3,-6,17,4,-15,-5,-4,0
6867665782,-16,-48,-17,-3,7,2,9,8
6867673307,22,-20,8,13,1,5,-2,-3
6867673307,-15,-17,-12,-1,12,5,6,0
6867688974,13,27,12,2,-8,-2,-2,3
6867688974,2,-1,-6,-11,-8,-7,-6,-2
6867689635,-6,-24,8,4,3,-3,-1,-3
6867689635,0,20,-6,-5,7,8,29,7
6867703340,-28,-6,-1,-11,-3,-24,-18,-8
6867703340,9,5,5,21,9,27,-2,3
6867710805,13,62,12,0,-10,-12,0,-2
6867710805,5,6,-20,-9,-5,-7,-6,-11
6867725829,-28,-24,-12,-19,14,8,6,3
6867725829,23,-1,3,-11,-24,-4,-11,5
6867733340,-15,-10,9,21,3,3,8,0
6867733340,6,-49,1,4,25,-5,-3,0
6867749050,7,-11,16,31,6,2,-3,1
6867749050,-15,-3,-1,-35,-21,-15,-11,-14
6867749713,-2,12,-10,8,-7,7,11,4
6867749713,-6,-18,-6,-7,-11,-9,-23,-7
6867763337,8,10,12,26,16,11,4,-1
6867763337,-4,-10,-13,-25,-9,-9,3,6
6867770849,7,9,17,56,24,-5,1,-3
6867770849,-10,-22,-10,-43,7,-4,7,-3
6867785722,-2,-26,11,4,-18,14,1,-4
6867785722,-6,-6,-4,2,5,-5,9,-3
6867793350,1,-1,18,25,-1,6,-3,1
6867793350,4,-20,-10,-12,6,16,1,0
6867808879,6,-1,-11,11,22,-2,1,-3
6867808879,-18,-10,14,15,-1,4,2,-5
6867809720,4,8,-22,-32,-6,-10,-6,2
6867809720,-5,-9,-3,-19,-22,-3,0,-5
6867823298,10,26,7,-4,-2,-5,-4,2
6867823298,-14,-10,-7,13,11,3,11,0
6867830802,13,13,8,2,7,16,-5,6
6867830802,10,14,4,-3,-23,-26,-9,-3
6867845833,-3,-21,-3,-20,-6,19,6,1
6867845833,-10,10,9,10,12,-6,-5,-1
6867853368,2,-4,-7,-13,-5,-8,-5,-9
6867853368,0,11,3,2,-2,-5,1,8
6867869062,4,5,-2,-1,-9,-2,15,1
6867869062,-4,5,-5,1,2,-1,-14,-7
6867869708,-7,-17,-11,-21,-7,-16,4,-8
6867869708,22,8,8,15,0,-16,8,13
6867883285,-17,2,-3,5,-2,18,-3,-6
6867883285,-4,-17,-9,-7,-1,4,29,-4
6867890797,15,-8,-1,-7,1,10,39,-9
6867890797,-9,-7,-2,6,2,-7,-23,9
6867905784,-8,-10,-4,-9,-10,-15,-16,-6
6867905784,-3,-8,-2,-10,0,-2,39,-7
6867913313,-17,-23,-2,-8,-4,1,-36,1
6867913313,10,7,6,10,2,20,-17,5
6867928988,12,-1,-4,-9,-11,2,18,0
6867928988,8,-5,2,-1,-1,-10,-10,0
6867929671,-28,3,-2,1,3,-18,0,-8
6867929671,-9,-11,-2,2,0,36,-10,-4
6867943361,-3,2,-9,-3,-5,-34,-11,1
6867943361,-8,11,10,1,0,27,-31,-4
6867950780,28,17,-9,-10,-5,-4,-11,7
6867950780,-20,-3,-6,-16,-16,-5,15,-8
6867965795,0,4,20,14,3,-9,-4,4
6867965795,-4,4,0,14,1,-1,1,6
6867973291,1,36,-33,1,8,-3,-1,-3
6867973291,-22,-45,-26,-23,-16,-13,-1,-12
6867988896,48,-85,5,7,16,12,18,2
6867988896,5,68,-1,-3,2,15,-10,9
6867989668,-8,28,86,34,7,21,10,11
6867989668,-31,-24,-69,-42,-8,-17,-1,-17
6868003251,-14,19,7,6,-15,-12,-18,0
6868003251,43,4,-33,-2,7,-11,-13,3
6868010638,4,-18,14,-19,-10,-10,-3,2
6868010638,34,73,35,8,13,17,9,5
6868025807,-54,42,-15,-4,9,9,21,-16
6868025807,-12,-22,9,-3,-4,-3,-28,-4
6868033318,-29,-74,-53,-34,-5,-16,-6,-7
6868033318,48,68,16,4,-14,-8,-10,2
6868048916,-11,-23,-13,20,-2,2,6,5
6868048916,-12,10,12,-10,-13,-9,8,3
6868049723,-9,7,-33,-17,-13,-2,-8,-10
6868049723,7,-7,24,39,7,-15,9,-7
6868063235,23,53,-5,-26,1,10,1,8
6868063235,-15,4,10,14,16,16,-2,4
6868070771,7,7,-6,-21,-15,-13,1,3
6868070771,-5,21,15,12,4,18,20,-5
6868085798,8,9,-14,1,20,-5,-9,3
6868085798,-20,-39,-8,-6,-24,-20,-16,-13
6868093329,11,4,3,14,36,23,2,8
6868093329,-7,-28,7,-17,-55,-2,-13,-3
6868108930,-2,-40,-1,24,13,-19,-24,-9
6868108930,17,-25,2,-5,-5,-7,65,9
6868109692,4,-9,2,-3,0,15,14,5
6868109692,-17,-33,7,20,44,-2,-11,-3
6868123244,-1,-28,-20,-31,-11,6,14,-6
6868123244,0,7,1,14,-27,-11,-23,-8
6868130799,7,3,-6,21,-2,0,0,6
6868130799,-8,-6,-4,-24,-16,-19,1,-6
6868145662,-3,-8,-8,-5,-6,3,-10,-2
6868145662,-1,0,10,31,0,-4,-13,-5
6868153289,2,2,-5,-7,10,-3,-8,-2
6868153289,-5,-15,-19,-8,15,3,4,1
6868168968,-5,21,20,-1,-15,-8,-19,-4
6868168968,-16,-15,-31,-39,4,-14,-8,-6
6868169742,4,-2,5,-3,-17,13,7,-4
6868169742,8,16,-9,21,10,0,-1,5
6868183320,5,29,10,7,5,-2,0,1
6868183320,2,6,20,32,-8,-9,4,-1
6868190814,-7,-2,-36,-31,-5,6,5,-5
6868190814,-9,-5,2,12,3,0,-5,3
6868205726,-5,-12,18,35,-5,-1,-2,-5
6868205726,-9,-17,-22,-42,4,1,-5,-2
6868213299,13,11,10,6,-10,-4,-3,0
6868213299,-2,-3,-7,4,6,0,3,-2
6868228892,-10,-14,-15,-21,-14,6,3,1
6868228892,13,10,0,-7,4,-5,-3,-2
6868229689,-8,-6,5,5,-1,-11,-14,-2
6868229689,-6,-17,-8,-16,-6,-13,22,-7
6868243294,11,11,14,7,11,11,-45,6
6868243294,18,5,-8,-12,8,24,-5,-3
6868250672,-33,-11,6,6,-1,-8,-15,1
6868250672,25,-13,12,14,-2,5,11,4
6868265798,-3,10,-7,-18,-13,-18,2,-8
6868265798,-2,-7,-1,2,4,-13,-6,4
6868273334,5,-5,0,2,-7,4,33,3
6868273334,-14,-2,2,-2,-4,-7,-14,-1
6868289008,15,6,-6,-12,-4,3,13,3
6868289008,-9,-3,2,-2,5,7,1,-3
6868289667,1,12,17,14,2,-3,0,-4
6868289667,2,-10,-15,-1,3,6,-11,1
6868303346,12,8,0,-13,-11,1,10,-2
6868303346,-36,-10,10,12,1,-5,-1,-2
6868310812,11,-1,-10,-15,-11,-7,-13,-4
6868310812,28,32,18,12,1,8,1,12
6868325827,-16,-23,-32,-32,-8,-12,-9,-4
6868325827,-2,2,4,-4,7,1,4,1
6868333279,-1,21,19,42,-4,-1,0,-1
6868333279,-24,1,-32,-62,-10,-2,-9,-8
6868348915,10,-29,6,19,10,5,8,2
6868348915,5,-27,-5,0,2,3,4,2
6868349655,3,-2,23,25,-5,1,-7,-3
6868349655,7,13,-6,9,-1,-6,-5,2
6868363199,-14,19,-5,-26,-6,-3,2,-2
6868363199,-19,-19,-14,14,11,9,3,-3
6868370801,25,9,10,11,4,-1,-6,1
6868370801,-20,5,19,-3,-5,1,4,0
6868385722,27,53,-1,0,-4,-1,3,7
6868385722,-21,-34,-14,-2,-6,-9,-11,-4
6868393311,-4,-17,-5,-4,-5,-1,0,-5
6868393311,16,13,-19,-8,8,7,5,3
6868408981,-11,14,9,-4,-5,0,20,-2
6868408981,13,19,11,8,3,-5,-13,-3
6868409682,-37,-7,-16,-15,-23,-1,-24,-10
6868409682,21,43,8,22,34,15,-6,2
6868423307,-9,-27,-21,-2,13,-5,-15,3
6868423307,16,39,18,-32,-46,1,6,-3
6868430818,11,-13,5,-4,-9,5,4,1
6868430818,-27,1,-12,-9,16,-9,-2,-2
6868445785,15,3,5,-7,-21,-9,-7,-5
6868445785,-10,-18,-2,-16,9,2,5,0
6868453255,1,-5,-16,-4,-7,-1,-3,-2
6868453255,-6,-27,15,20,-22,-8,0,-2
6868468929,-8,-13,12,28,38,-1,4,-4
6868468929,3,3,2,-4,-23,-16,1,3
6868469653,-8,-5,0,18,35,21,7,-1
6868469653,4,-30,-15,-17,-23,-2,-2,-1
6868483281,-8,-10,-5,9,6,-3,9,0
6868483281,8,29,11,1,13,-6,-16,-11
6868490721,7,-11,-17,-12,13,-2,9,19
6868490721,0,-13,1,10,3,7,15,-16
6868505743,-10,0,3,7,-47,-19,-14,1
6868505743,-7,-10,-6,-2,14,34,14,-8
6868513307,4,12,-2,0,24,-20,-29,-4
6868513307,5,-6,0,-9,-23,-23,11,12
6868528322,7,7,10,22,29,35,20,5
6868528322,0,1,7,1,-17,-4,-11,7
6868536485,-11,-26,-30,-31,-7,-16,5,-9
6868536485,7,11,18,6,-1,0,-7,7
6868543160,-3,-3,-7,-4,-6,-11,-6,-7
6868543160,1,-2,9,-14,-25,-12,-4,0
6868550807,2,2,-17,-5,37,10,3,3
6868550807,-11,-2,-6,-15,-19,-11,-9,-10
6868565732,-4,-9,-8,-5,6,2,0,-1
6868565732,-1,0,-6,0,4,-13,1,-2
6868573260,6,16,20,11,-19,20,15,1
6868573260,9,6,-7,6,9,2,-13,-4
6868588298,-13,-2,-3,-14,-7,3,-1,-2
6868588298,11,8,9,22,5,-11,-8,6
6868596467,-14,-5,0,-14,-16,-12,15,-5
6868596467,0,-18,-2,6,6,-15,-37,-40
6868603297,16,-3,0,-6,-5,43,4,80
6868603297,-7,-7,-15,-4,6,-8,2,-38
6868610685,-12,-7,2,-4,-6,-6,-34,-23
6868610685,-7,-8,14,2,-4,-6,18,-7
6868625820,1,-13,2,2,-3,-5,15,-14
6868625820,-14,-12,-5,-2,8,-12,-12,1
6868633232,12,5,2,-9,-7,18,0,12
6868633232,10,-8,6,13,3,-7,-3,2
6868648302,-12,2,-1,-4,-1,-7,-15,-20
6868648302,-3,-14,-15,-3,8,9,22,9
6868656468,-13,6,9,3,-4,-8,7,-20
6868656468,-16,6,2,-1,-4,11,-5,24
6868663297,16,16,9,2,1,-21,2,-4
6868663297,-2,-15,-18,-4,-1,11,-5,-5
6868670732,26,22,-4,-5,-11,-12,2,10
6868670732,-19,-43,11,11,14,22,2,6
6868685792,-14,16,3,-8,-12,-15,-8,-15
6868685792,4,22,23,8,1,5,7,4
6868693278,-21,-55,-27,-5,-4,-5,-6,-7
6868693278,-5,33,21,12,-9,-3,4,5
6868708287,31,52,5,-23,-2,-8,-1,-4
6868708287,-21,-81,-66,12,2,4,12,0
6868716481,10,59,28,27,36,17,-6,14
6868716481,-8,45,-3,3,-13,-1,-4,-13
6868731366,-23,16,-10,-8,-14,-8,-15,-13
6868731366,-6,-29,-4,5,-24,-14,-15,-2
6868732245,-3,1,-48,-13,15,-2,14,13
6868732245,11,72,-1,-2,1,6,2,-2
6868745792,3,-82,18,-2,22,4,3,-6
6868745792,40,69,77,-4,4,16,3,21
6868753216,-25,-19,-19,-6,-18,-7,-5,-10
6868753216,12,-5,15,-7,-22,-17,-8,13
6868768278,15,39,1,1,23,10,-8,-7
6868768278,10,7,-4,-15,-6,4,11,6
6868776457,-12,2,39,-5,-4,-4,2,-5
6868776457,3,-21,-27,3,6,-4,-7,1
6868791471,-7,8,-15,-16,2,-4,-10,-4
6868791471,-8,33,4,2,4,-8,0,-10
6868792089,9,47,9,-4,-21,25,32,9
6868792089,2,-9,-4,12,6,-7,8,7
6868805766,-31,-8,-9,-15,-9,-11,1,-9
6868805766,2,28,0,29,17,-6,-6,3
6868813282,8,-30,-13,-30,-10,12,-10,-4
6868813282,3,-41,-2,-6,19,-29,3,-10
6868828309,1,-40,2,14,-37,18,37,3
6868828309,-7,-26,-4,16,43,-1,-19,0
6868836429,-9,-52,-1,-2,-63,-8,-11,-8
6868836429,3,-36,-13,-34,11,9,12,-3
6868851347,12,6,0,89,52,-2,-13,2
6868851347,-4,-19,-13,-80,-41,-4,1,1
6868852164,5,0,10,27,28,-17,0,-1
6868852164,-13,-11,-1,-12,-8,18,1,-6
6868865732,-2,-17,-15,-29,-41,-18,-7,-1
6868865732,14,4,0,44,28,9,3,5
6868873256,-4,11,6,23,-8,-18,-10,-6
6868873256,8,11,-7,-6,2,12,1,7
6868888297,-8,-3,1,6,5,2,-2,-5
6868888297,4,28,15,30,-8,-2,7,6
6868896512,5,23,-4,-12,24,3,1,0
6868896512,-7,0,-38,-60,2,2,-6,-2
6868911453,5,18,-4,6,-4,4,2,3
6868911453,-10,0,-11,-16,-16,-7,-9,-7
6868912143,7,-6,5,16,9,-4,-1,3
6868912143,-5,-19,15,-3,0,15,6,2
6868925798,-11,-23,-7,-17,0,0,-7,-4
6868925798,1,8,-4,-18,-5,1,8,1
6868933244,3,-8,-7,-6,0,1,-10,1
6868933244,0,0,8,19,-1,-12,-6,-1
6868948259,3,6,7,-6,-8,5,19,4
6868948259,3,-6,-4,11,13,0,6,5
6868956479,-2,9,16,3,3,-6,10,0
6868956479,12,6,0,14,1,26,-1,-16
6868971403,-10,-10,-11,-7,-3,-5,-39,22
6868971403,-7,-5,-5,-8,-7,-13,12,-6
6868972090,0,-11,-8,-16,-3,-2,12,54
6868972090,-36,-8,6,9,-6,-13,-27,-96
6868985670,-9,-14,2,-5,-3,-2,-3,-10
6868985670,30,2,0,-3,2,5,-2,34
6868993260,-8,-5,2,-7,-7,0,-7,-28
6868993260,1,12,0,13,-1,-2,3,51
6869008261,3,-3,-5,-3,-2,-3,1,-3
6869008261,-1,23,-4,-6,-4,3,-10,-39
6869016467,23,26,10,2,3,2,8,6
6869016467,-2,-20,-6,2,-3,-4,-5,5
6869031416,-8,8,2,-6,-2,-13,-5,-4
6869031416,-29,-12,-9,-6,-1,8,4,11
6869032116,-16,-8,1,5,1,-4,-6,-13
6869032116,5,57,14,16,8,4,6,15
6869045699,21,-62,6,-21,-7,-3,2,5
6869045699,-12,-5,1,13,3,3,-5,-8
6869053303,10,75,-34,-22,-10,-9,-8,-10
6869053303,-52,-70,-13,7,-11,-10,-9,-16
6869068282,12,14,-13,-7,15,6,9,6
6869068282,-19,-85,-37,-38,-38,-24,-22,-17
6869076413,1,28,9,6,13,1,1,1
6869076413,35,28,24,28,11,11,11,31
6869091294,-16,4,4,-10,-8,1,-7,-18
6869091294,-4,-22,18,-12,-28,-8,-2,-3
6869092069,-10,5,-19,26,3,-3,-8,-2
6869092069,5,11,-10,-36,-5,-3,3,5
6869105697,-9,-41,3,8,6,10,18,-7
6869105697,15,25,0,-3,4,3,-15,1
6869113179,-6,13,14,-10,-12,-6,-9,-7
6869113179,14,32,10,8,-7,-10,-2,4
6869128344,-18,-9,-21,-5,3,2,4,5
6869128344,12,11,9,4,6,2,9,6
6869136430,-7,-47,-6,-8,-11,-17,-5,-4
6869136430,2,11,-11,-9,-1,5,-11,-2
6869151441,0,53,20,18,-5,18,4,-4
6869151441,9,40,-8,11,18,6,9,2
6869152145,8,-5,10,13,35,11,-4,0
6869152145,-7,-8,-5,6,-15,-3,4,7
6869173919,-9,5,4,13,-53,-17,-9,-6
6869173919,-3,9,-6,-28,-3,-1,1,-5
6869174616,5,-27,-6,-23,32,3,-10,5
6869174616,4,-28,11,13,-6,6,-4,-3
6869188280,11,-5,-3,-2,22,-13,-11,-3
6869188280,-7,-1,1,19,15,11,7,1
6869196426,-9,-41,-8,-22,-40,-8,5,-4
6869196426,-9,-27,-6,-8,18,2,-2,-2
6869211290,15,18,10,25,-9,0,-2,3
6869211290,-9,-5,-7,-30,16,-4,-5,-4
6869212136,6,-9,-18,-4,0,0,2,2
6869212136,8,15,9,54,-1,5,7,4
6869233845,-6,-3,-16,-19,5,-1,-2,-5
6869233845,14,25,54,68,7,7,6,8
6869234694,-8,-14,-39,22,11,15,6,-4
6869234694,-15,-21,-25,-98,-5,-10,-4,-4
6869248121,9,20,0,9,-2,-19,-2,1
6869248121,-11,-5,-13,-17,-21,1,-9,-7
6869256410,5,5,-2,0,-11,-1,2,-1
6869256410,3,10,13,27,9,-6,0,-1
6869271417,1,15,6,8,9,-12,-9,-3
6869271417,-13,-11,9,-2,-1,1,0,-4
6869272165,-16,-10,22,-6,-15,3,7,-9
6869272165,13,-7,-20,-9,-8,1,-9,3
6869293889,-3,-5,-1,-4,8,0,10,2
6869293889,-2,-9,-19,-3,-3,-12,-15,-5
6869294571,0,-2,11,9,7,0,7,2
6869294571,3,5,10,13,3,7,8,7
6869308205,7,-3,-12,-13,4,-5,-11,0
6869308205,-3,-1,-8,-7,-10,8,-11,-26
6869316465,11,5,9,-4,-2,-7,16,43
6869316465,-19,-20,-7,-7,-1,-6,-12,-10
6869331297,-17,-20,1,0,-1,1,-6,-20
6869331297,-8,-12,-9,-6,-3,-7,19,30
6869332164,13,-1,8,0,-6,-3,-19,-7
6869332164,-3,-4,-5,-3,-5,-10,-24,-9
6869353871,2,7,8,1,4,6,32,-27
6869353871,7,6,-3,3,4,-4,10,4
6869354625,-20,-6,-2,-7,-6,4,-28,-16
6869354625,0,-4,4,2,1,-3,29,-7
6869368261,19,17,4,-2,2,13,3,31
6869368261,20,12,-5,-3,-1,2,-10,-1
6869376444,-10,-19,1,0,-2,1,17,-3
6869376444,-5,17,10,-1,-7,-4,-5,-6
6869391410,-20,44,12,-2,-2,3,-11,5
6869391410,43,-26,2,9,-4,-3,8,8
6869392097,-59,-52,-11,2,-6,-13,-19,-27
6869392097,6,29,-22,-26,-7,-2,1,13
6869413818,30,7,10,30,28,19,11,12
6869413818,6,77,39,15,-9,-7,-14,-4
6869414590,25,-50,-61,-51,-10,5,2,-2
6869414590,-31,-9,11,-38,-1,-2,-5,-7
6869428231,-31,-61,-57,-14,-4,-3,-7,-11
6869428231,7,69,-19,-6,10,-1,2,4
6869436433,22,34,28,28,0,1,8,8
6869436433,21,-42,30,20,-6,0,-2,9
6869451362,-13,24,-3,-47,-31,-16,-17,-15
6869451362,-23,-7,17,5,8,3,2,1
6869452093,2,-10,-15,-18,0,2,-11,-7
6869452093,27,-49,5,8,1,2,-2,16
6869465714,-1,79,33,11,6,-4,1,3
6869465714,-10,-32,-18,1,-19,-8,-8,-5
6869473233,1,58,25,25,2,10,16,-2
6869473233,-11,8,-23,7,23,1,2,-2
6869488261,-31,-28,-20,5,-3,-2,-9,-4
6869488261,3,14,-2,-29,-26,-5,-1,-2
6869496391,-10,28,6,2,-9,-8,-12,1
6869496391,4,40,1,-5,1,-9,6,-5
6869510716,4,-2,0,-2,-1,13,6,4
6869510716,5,8,8,19,36,14,7,2
6869518958,1,-1,23,26,2,-2,-10,3
6869518958,-21,2,-16,15,3,6,-12,-5
6869525729,22,-2,6,-2,7,-9,14,2
6869525729,-14,-46,-25,-24,-13,-10,-24,-5
6869533920,3,-18,5,4,-20,-12,-2,-3
6869533920,-2,-2,-3,-14,-18,-15,-1,-3
6869548237,5,-42,-16,-34,-22,-9,-10,-2
6869548237,-10,-33,7,8,11,8,9,-4
6869556436,-7,-15,-10,22,33,8,2,-3
6869556436,6,-6,5,17,-1,6,7,1
6869570738,7,-16,3,8,-8,6,3,4
6869570738,0,-1,-6,2,19,-4,-2,-1
6869579676,-6,7,11,3,-30,-17,-6,-8
6869579676,6,0,-20,-27,4,5,5,-1
6869585661,3,-1,6,6,10,-13,-9,1
6869585661,-14,-2,17,-11,3,13,2,-4
6869602094,12,26,-6,10,17,2,6,5
6869602094,-11,5,19,14,0,5,-1,-5
6869608235,1,2,-2,0,3,0,-4,-3
6869608235,-17,-1,-15,-4,-13,-7,-1,-4
6869617140,11,7,18,-14,-7,-4,-2,1
6869617140,7,13,10,17,-4,-3,-4,-6
6869630737,-7,-6,1,-31,-17,-2,-2,0
6869630737,2,-21,-18,24,10,3,11,4
6869639618,-5,4,4,-11,6,2,-4,-3
6869639618,2,5,-6,-3,-2,-1,2,2
6869653272,6,-1,-1,15,4,-5,-4,-1
6869653272,3,5,-5,-4,3,3,8,0
6869662096,-4,-12,2,-4,2,21,8,-1
6869662096,3,-9,-11,-13,-9,-4,1,3
6869668215,-3,-5,-4,7,-3,-5,-2,-3
6869668215,-8,-7,6,5,-4,-13,-6,-5
6869677095,-3,-11,-11,-25,2,3,15,5
6869677095,15,10,5,12,3,9,10,5
6869690768,-21,-10,0,2,1,5,2,-2
6869690768,-7,-7,-11,-11,-19,-26,-12,2
6869699640,0,10,0,-1,4,11,-3,-17
6869699640,19,5,-1,1,8,6,2,24
6869722110,-7,-5,2,2,-2,-1,13,-5
6869722110,2,-13,-2,-4,-9,16,6,-18
6869723622,11,17,6,0,6,-5,-12,19
6869723622,-26,-8,-1,1,-1,3,3,-13
6869728286,33,-25,-17,-4,1,-1,-16,6
6869728286,-20,26,11,-1,-7,-7,-4,1
6869737088,4,-27,-17,-10,-10,-12,1,-6
6869737088,20,57,24,2,4,-1,-3,13
6869750752,-10,-48,-5,20,0,3,2,-9
6869750752,-19,52,-9,-14,4,-2,-11,-7
6869759640,22,36,20,12,-7,-1,5,14
6869759640,-24,-13,-26,-34,-6,-4,-5,-19
6869773198,19,4,-31,-4,14,14,3,11
6869773198,28,-5,20,1,0,6,4,6
6869782145,-38,16,-7,5,4,0,-6,-9
6869782145,-6,42,6,15,1,-11,-7,-8
6869788266,-9,31,12,-8,0,2,2,-2
6869788266,16,-18,13,-5,-9,-7,-5,12
6869797164,-19,-40,-58,-18,-3,-2,-1,-12
6869797164,12,-2,11,12,1,4,0,-1
6869810654,-16,24,16,4,-3,-10,-8,2
6869810654,18,37,-15,-2,29,2,0,4
6869819619,-2,0,21,3,-22,-4,-2,-6
6869819619,-9,-39,-17,-11,3,-3,-2,-4
6869833113,12,15,9,7,-6,12,21,5
6869833113,-8,11,5,9,11,-3,-16,-3
6869842094,0,-21,3,-2,-4,-12,-8,-5
6869842094,-14,-9,-16,-11,-17,5,-5,0
6869848228,2,23,16,15,33,-15,0,-1
6869848228,-15,-19,-22,-23,-27,6,3,-5
6869857175,-8,16,-1,-3,11,-6,2,2
6869857175,18,17,6,17,3,17,2,-6
6869870759,-1,21,7,-1,-10,7,0,4
6869870759,3,-10,0,1,-14,-1,-5,-7
6869879613,-10,12,-12,-19,-11,-11,-3,2
6869879613,3,-21,-1,4,-22,-6,-3,-2
6869893839,-5,-24,6,-7,-17,-8,-3,-4
6869893839,-3,-27,-7,0,26,14,9,5
6869900616,9,-14,14,-2,-35,0,-11,4
6869900616,-13,-25,-2,-1,5,-6,-10,-10
6869908250,-7,-32,-11,-21,0,-1,1,-4
6869908250,2,-18,-4,6,2,-1,2,1
6869917095,9,-2,3,10,18,-10,0,1
6869917095,-4,-10,-10,-31,-3,2,7,2
6869930714,13,15,12,17,-19,9,-8,1
6869930714,-5,-13,11,16,0,-18,-2,-4
6869939595,-8,-19,-24,-32,14,9,5,-2
6869939595,11,15,3,38,2,-4,0,1
6869953956,-3,-4,-1,12,16,1,2,-3
6869953956,-16,-25,-11,-21,-2,2,0,-3
6869960710,11,16,17,19,5,7,4,-2
6869960710,4,0,-7,-3,-10,-26,-3,3
6869968191,-4,5,0,-13,-2,23,6,-5
6869968191,3,3,3,19,1,-11,-3,2
6869977094,11,15,17,16,6,0,3,6
6869977094,-15,-14,-10,-18,6,7,2,-6
6869999533,-5,-8,-4,3,-1,-4,8,-2
6869999533,8,-3,-6,-8,-8,-5,-1,-3
6870001046,10,6,-3,-2,5,8,1,10
6870001046,-9,-17,9,9,3,-17,-3,-8
6870013754,-22,2,-8,-18,-9,-12,-31,-2
6870013754,4,7,1,6,-1,22,10,3
6870020587,-5,-7,-3,-3,-1,-21,26,-22
6870020587,1,-11,-13,2,6,22,-79,10
6870028105,14,1,-1,1,-2,-11,9,4
6870028105,-3,-7,-1,-5,1,-7,9,14
6870037073,-16,-14,-2,0,-1,4,-9,-8
6870037073,-1,-8,4,-5,-1,-1,6,-17
6870050673,9,-9,-9,-6,2,-7,-28,51
6870050673,-22,-13,-4,1,-4,-13,-7,-32
6870059580,6,-9,2,-10,-7,4,-18,-7
6870059580,2,6,-1,1,0,4,4,6
6870074393,-4,2,-6,0,2,4,-8,7
6870074393,15,8,-2,-1,-7,12,24,7
6870076040,-5,-6,3,6,5,-8,-15,-12
6870076040,-15,4,6,-7,-2,-6,11,8
6870088112,10,24,13,7,1,5,18,-9
6870088112,0,-29,-1,-2,-9,-2,-20,-3
6870097105,-6,25,7,-2,4,4,4,-7
6870097105,3,14,-15,5,1,5,23,13
6870110587,11,18,-13,-20,-2,-10,-8,-13
6870110587,-13,54,19,0,-8,-4,-3,-8
6870119574,5,-66,-62,-63,-10,2,-6,15
6870119574,-16,-80,21,1,-12,-17,4,-11
6870134419,18,52,-17,24,22,11,6,-6
6870134419,-15,-11,0,1,-15,-5,-9,0
6870136047,-22,10,56,-27,12,3,21,-5
6870136047,-10,-34,-3,29,14,2,-13,4
6870148051,-12,-97,-30,-11,-14,-9,-8,-22
6870148051,17,33,50,10,-11,-8,-5,3
6870157107,-12,-49,-76,27,7,9,3,5
6870157107,49,52,48,-12,-2,-9,11,2
6870170595,-15,107,78,-5,5,4,12,6
6870170595,5,-87,-22,14,6,9,-16,-3
6870179571,1,46,16,-10,-10,-5,-9,0
6870179571,-15,48,-46,-31,3,-4,14,-8
6870194404,-8,-23,-16,13,4,-14,-1,5
6870194404,13,35,-12,-17,-28,2,0,-7
6870196047,0,21,14,20,0,-9,-15,-10
6870196047,5,-11,-11,5,1,6,32,8
6870208109,-19,-14,-1,-12,5,-7,-9,-11
6870208109,-5,7,7,13,-9,15,12,10
6870217027,11,25,-13,-15,37,14,4,7
6870217027,9,43,13,26,-6,0,-7,-6
6870230576,-25,-30,-2,-22,-42,-8,-4,-8
6870230576,0,8,-14,-12,20,2,11,3
6870239583,9,1,2,24,-14,-10,-5,2
6870239583,-16,-22,-5,11,-2,-10,-5,-3
6870254433,-4,-43,-25,-45,-20,-2,0,-12
6870254433,11,-22,-16,-32,26,6,3,7
6870256088,-8,-13,15,8,-19,0,-9,1
6870256088,7,-12,1,14,-6,-2,-7,-4
6870268066,11,-19,3,16,19,-5,-10,-5
6870268066,-12,-2,-5,14,5,-10,4,-7
6870277062,-5,-7,6,3,5,14,7,1
6870277062,3,4,-5,-27,10,6,3,1
6870290678,5,5,-11,-4,-21,-12,-17,-2
6870290678,1,8,-5,4,10,-5,-5,0
6870299568,-1,-13,12,8,-2,-4,4,1
6870299568,-4,0,-7,-34,-13,0,-3,-1
6870314515,2,21,3,5,6,4,8,0
6870314515,0,7,-1,31,16,5,4,4
6870316184,2,22,-16,-32,-33,-18,-12,-5
6870316184,-8,22,11,12,-3,-4,-5,-4
6870328239,4,12,-7,51,31,17,13,3
6870328239,-2,12,9,-1,-10,-10,-6,-1
6870337044,2,0,0,17,-4,-5,-2,-2
6870337044,1,-2,3,3,1,-5,1,2
6870350691,-12,-26,-4,-10,10,-4,0,-7
6870350691,-2,-19,-7,-5,-13,8,-5,-1
6870359601,-8,-16,5,9,2,1,2,-3
6870359601,19,0,3,-3,2,4,-11,3
6870374592,-17,-28,-4,-3,-9,6,6,-3
6870374592,13,3,-8,-8,-2,-19,0,1
6870376092,-1,5,3,0,6,-36,-8,3
6870376092,8,-13,-18,-13,2,54,6,-11
6870388214,-9,11,11,9,-5,-5,-8,1
6870388214,-28,-1,-7,-11,-3,-5,-8,-15
6870397106,14,2,0,-2,-1,-2,25,16
6870397106,-11,-11,2,6,-6,-27,-2,-8
6870410679,19,8,10,7,4,20,23,9
6870410679,3,7,-3,-10,-1,1,2,-3
6870419586,-2,2,-1,2,-4,-3,-25,-2
6870419586,-4,-4,-1,2,2,-5,5,1
6870433912,-3,-5,-3,-6,-1,7,-2,-1
6870433912,1,11,-5,-6,-1,-12,-4,0
6870440720,-8,4,2,4,4,15,3,-6
6870440720,-1,-6,-2,-3,-4,-7,-7,6
6870448195,21,6,-2,-2,-3,-6,-2,-3
6870448195,-2,-1,5,0,0,2,0,6
6870457112,-4,-7,13,8,-6,4,-4,-4
6870457112,-19,-22,-36,-40,-9,-11,-3,-5
6870470658,-22,-6,0,29,0,-4,-7,-7
6870470658,15,-17,-10,-20,3,10,6,5
6870479593,27,35,22,18,12,13,9,8
6870479593,-9,10,-15,14,7,-7,-2,-3
6870493869,-17,-70,2,-4,-12,-10,-8,-9
6870493869,-18,10,10,-16,-15,-9,-8,-1
6870500698,-3,-14,-21,-39,-4,7,2,-2
6870500698,14,-5,17,64,15,0,1,4
6870508206,1,14,-28,-23,5,-1,-7,-7
6870508206,-7,17,16,11,-2,2,-2,2
6870517094,7,-39,-7,-11,-11,-9,-6,-6
6870517094,-8,39,14,-13,-7,-4,2,0
6870530735,-5,12,8,4,-4,-2,-7,9
6870530735,-14,-30,-6,8,1,-6,-8,-15
6870539561,8,20,-4,4,-3,4,0,1
6870539561,-2,-16,0,-9,3,2,19,2
6870553790,13,6,12,16,4,1,-13,2
6870553790,14,21,-8,-16,-6,-5,0,2
6870560751,-5,29,-11,-1,0,-10,-5,-6
6870560751,-10,10,13,2,-5,30,-4,-4
6870577035,-5,19,-1,-13,19,-8,1,7
6870577035,6,0,1,10,-11,4,11,4
6870578530,-6,10,3,5,16,4,-3,-4
6870578530,18,2,-1,2,2,-15,-7,1
6870590631,3,26,-8,-21,25,5,2,-1
6870590631,-5,-17,-12,-16,-30,11,-5,0
6870599598,-6,-18,3,40,28,-9,0,-1
6870599598,2,-5,2,-11,-2,9,3,1
6870613924,7,1,5,7,-1,4,0,-2
6870613924,0,-5,3,10,13,-11,-2,0
6870620697,-7,-13,-7,-24,-16,6,1,2
6870620697,-1,-10,-2,-13,-10,-16,-4,-2
6870636949,10,5,0,4,-16,-1,2,-1
6870636949,-8,-8,0,10,2,0,-1,-1
6870638556,-5,-9,-7,-5,-7,-2,-1,-5
6870638556,-7,-20,-12,-6,-1,-7,-14,-6
6870650744,-5,-10,-4,-15,-26,-3,7,-1
6870650744,2,-11,-11,-8,-1,-23,-13,-6
6870659555,5,0,16,31,7,15,8,7
6870659555,9,6,-4,-10,13,-2,4,3
6870673820,-9,-11,-16,-4,2,-1,-3,-6
6870673820,16,1,6,16,-18,-7,-3,3
6870680683,-15,-4,15,6,37,13,4,-8
6870680683,3,12,-12,-29,-19,-10,2,7
6870697071,6,7,23,41,-7,3,-3,-2
6870697071,-4,10,-19,0,0,-10,-11,-7
6870698543,3,3,5,-3,-7,-19,-1,1
6870698543,-5,-10,5,27,16,32,2,-4
6870710703,-3,-3,1,-13,1,-11,3,0
6870710703,-1,-6,10,5,-9,-7,6,3
6870719615,-4,-1,-11,-18,-18,15,-7,-4
6870719615,2,10,2,2,-5,-23,-10,0
6870733903,7,2,-3,-1,0,4,2,5
6870733903,-5,-4,-3,-4,3,-7,22,-26
6870740698,8,7,0,-2,-5,10,16,15
6870740698,-10,-11,-10,-7,-6,-19,-86,-13
6870757056,1,11,-1,-2,-11,-18,52,6
6870757056,-15,-12,-1,-5,25,27,-5,-13
6870758590,-12,-22,-10,-8,-8,-17,-43,-7
6870758590,-5,-12,8,5,-8,17,28,7
6870770665,9,-3,6,-5,-3,-23,-11,-4
6870770665,12,-2,3,0,11,5,-17,-4
6870779577,3,-6,-12,-10,-11,-5,-1,26
6870779577,-14,0,6,2,-6,-11,15,-19
6870793790,-1,-18,-5,-6,3,5,-14,4
6870793790,5,9,-3,-6,5,10,16,7
6870800677,17,11,-2,2,-7,3,5,6
6870800677,-14,-7,2,-2,0,-9,8,-1
6870817102,-2,-5,-4,-7,-1,18,-9,-10
6870817102,-2,3,-2,2,1,-9,-7,-1
6870818537,5,12,2,-5,-10,2,5,-4
6870818537,-2,17,10,8,8,8,15,12
6870830667,2,-56,9,1,-14,7,-7,-15
6870830667,-22,34,-13,12,24,3,5,18
6870839530,4,-63,-40,-46,-14,-15,-5,-5
6870839530,5,100,27,4,-11,-1,11,3
6870853615,-10,-29,-7,-12,7,11,-7,-6
6870853615,0,55,-2,-10,-20,-16,-13,2
6870862093,9,-22,43,18,16,9,21,-7
6870862093,-26,32,-12,36,-22,-6,-18,-24
6870877063,-5,-33,53,1,15,-3,9,15
6870877063,-9,-36,-79,-88,-19,9,-2,1
6870878547,20,24,16,28,5,-7,-4,-8
6870878547,-46,-42,-25,-7,-34,-23,-13,-9
6870890642,23,55,24,29,25,7,4,8
6870890642,65,49,68,10,-22,8,-17,8
6870899559,-46,24,-26,7,23,10,7,-5
6870899559,16,-43,-10,-13,6,0,11,9
6870913884,-29,-26,-18,-3,-29,-11,-16,-10
6870913884,10,48,24,5,18,-6,6,-1
6870920695,1,22,-14,0,-40,-15,-9,-7
6870920695,27,-22,13,12,37,26,8,6
6870937059,12,46,-14,-12,-1,4,8,6
6870937059,-17,-37,3,1,3,-3,2,5
6870938541,-4,4,5,-1,-23,-8,9,-5
6870938541,-14,0,-5,-4,18,-2,-12,-7
6870950627,4,35,-22,1,17,-8,-9,-5
6870950627,-3,5,8,9,-24,19,8,3
6870959543,-14,7,12,30,-34,3,5,-8
6870959543,25,17,-9,-43,36,5,22,9
6870973791,10,27,-13,10,20,4,20,11
6870973791,-23,-49,12,43,4,-17,-12,-5
6870980702,0,-31,-10,-50,-1,-39,-6,-8
6870980702,15,-35,5,-5,-25,34,5,1
6870997508,-6,-35,-6,-11,-10,-29,-13,-1
6870997508,-12,-53,-13,-16,13,2,11,-3
6870998952,3,-15,12,31,38,27,4,2
6870998952,13,1,12,18,-3,-17,-18,0
6871010701,-10,-9,-24,-62,-76,7,0,-6
6871010701,-5,-22,-10,10,18,0,3,-3
6871019580,-3,14,13,32,4,-8,-7,-3
6871019580,-12,-26,-14,-28,-6,-4,3,0
6871033901,-3,6,-15,-28,12,0,-1,-3
6871033901,0,-5,-2,-13,-3,8,5,-1
6871040579,1,13,-2,-7,-24,-1,-5,3
6871040579,-1,-3,-21,7,18,3,7,0
6871057032,-3,7,18,36,-3,-1,-4,-5
6871057032,7,14,-28,-19,1,7,-1,4
6871058540,0,-2,-4,-35,13,-1,-5,1
6871058540,0,3,21,25,-14,-10,-2,-2
6871070776,0,-1,-18,-18,-2,0,-6,-4
6871070776,0,8,11,13,1,-15,-7,1
6871079527,-2,-2,-1,-7,4,-4,4,-3
6871079527,-4,-7,4,-14,-9,5,-3,-1
6871093728,-8,-11,0,8,3,12,-1,-1
6871093728,3,-1,6,14,2,-6,-3,-2
6871100590,-11,-13,-5,-8,2,-8,0,-6
6871100590,24,5,4,-5,-12,-36,-15,5
6871116975,-7,-7,2,13,13,35,4,-6
6871116975,-12,-18,-9,-5,-4,-19,-7,16
6871118569,11,-5,1,1,10,25,-23,9
6871118569,-5,4,-4,0,0,-3,-6,3
6871139522,-1,1,4,8,-3,-19,19,-16
6871139522,-5,-6,3,0,0,-4,-69,0
6871141048,7,8,-3,-5,-3,2,4,0
6871141048,-10,4,4,2,-1,1,20,13
6871153868,3,-6,2,-2,-4,-13,-22,-3
6871153868,4,-4,0,1,3,10,15,-1
6871160577,7,8,-4,-2,3,-3,-3,-3
6871160577,-1,-18,-2,-2,-3,8,-3,-3
6871177005,-27,9,7,3,-2,-9,0,4
6871177005,-13,0,4,3,0,8,18,-9
6871178512,0,-28,-4,-4,-7,-6,-3,-2
6871178512,-8,26,1,-3,-2,-2,10,-3
6871190685,16,-31,-11,0,-1,1,-9,4
6871190685,7,2,-10,15,7,1,7,-4
6871199573,4,72,15,-2,-2,3,7,7
6871199573,-17,-79,-1,3,4,7,-5,-12
6871213882,10,10,-16,-9,-5,-12,-7,2
6871213882,9,-4,-12,-33,-19,-3,7,4
6871220673,-8,-28,27,22,-1,-4,0,-5
6871220673,-12,-22,-47,-12,12,3,-3,-6
6871237004,1,-9,31,38,-15,-2,-1,2
6871237004,13,11,1,-32,11,-2,9,-2
6871238566,-12,17,4,5,-1,0,-4,1
6871238566,22,44,25,17,-6,-4,1,4
6871250675,-17,7,-9,-10,1,-2,-5,0
6871250675,1,3,22,18,-6,-6,0,-11
6871259589,-9,-14,-33,-22,-7,4,3,-1
6871259589,1,-6,0,-3,12,9,2,6
6871273853,3,70,-5,-6,8,-6,-19,-14
6871273853,-11,8,8,5,-15,-6,2,-1
6871280675,4,12,-4,-10,8,-14,0,-6
6871280675,-20,20,-1,-2,-6,5,-1,1
6871297084,4,19,-10,-5,-25,6,-2,-2
6871297084,19,17,9,28,46,5,10,11
6871298504,-3,4,-8,-13,-16,-5,-17,-1
6871298504,8,10,20,19,-10,-13,10,-4
6871310701,-6,-36,-28,-24,15,13,-34,-2
6871310701,-6,-30,-4,4,-22,18,35,7
6871319542,0,-30,-3,12,34,-9,-13,-2
6871319542,0,-9,1,-12,-18,-25,-18,-9
6871333880,7,-19,30,24,11,14,10,4
6871333880,-5,-21,-6,6,18,4,7,-1
6871340608,7,0,-11,-8,-7,7,0,4
6871340608,-4,-2,-3,-29,-7,-22,-12,-7
6871356386,-1,-19,-13,-13,-36,0,17,2
6871356386,-2,9,-7,10,24,11,0,-1
6871363222,-16,-20,1,2,29,4,11,-3
6871363222,19,12,3,-2,3,11,3,7
6871370702,6,9,-10,11,-19,-14,8,3
6871370702,-15,-10,3,-26,19,-8,-9,-9
6871379575,4,0,-7,-12,-17,9,-3,-2
6871379575,11,19,-6,-39,-30,2,5,3
6871393885,-15,-20,17,7,27,2,-1,-3
6871393885,7,17,19,46,-18,-3,-10,-1
6871400665,4,7,-21,-9,7,-7,5,1
6871400665,-5,-3,-4,4,21,19,8,-1
6871416373,1,8,1,-2,-3,-14,10,5
6871416373,-12,-9,2,-11,-17,-14,-14,-14
6871423160,2,5,-5,3,-9,6,5,4
6871423160,-8,5,4,11,5,6,-2,-2
6871430672,2,-1,-10,-13,3,-16,-11,-6
6871430672,-2,-11,-1,-7,-15,-15,-9,1
6871439547,-14,-18,6,-5,-2,12,11,-10
6871439547,-1,-6,-13,2,-1,-29,-4,0
6871453892,-5,6,9,7,12,22,19,-8
6871453892,14,23,-16,-19,-10,-4,-34,4
6871460665,6,3,6,8,-4,32,20,33
6871460665,-25,-6,2,13,6,-1,-17,-38
6871476374,-5,-16,-1,-4,3,13,16,0
6871476374,-2,-26,-4,-8,-10,-21,-14,28
6871483163,-7,-16,1,4,-4,-27,24,-16
6871483163,17,-5,-1,2,-7,9,-1,14
6871490551,3,15,3,-2,10,7,20,4
6871490551,-9,1,0,-2,-5,1,15,-6
6871499560,12,5,2,1,-7,-11,-7,2
6871499560,-15,-13,0,2,2,7,23,-1
6871513877,0,-2,1,-3,-2,-6,1,4
6871513877,6,10,-3,-1,-2,5,3,-3
6871520659,-26,-14,0,3,1,2,-1,-10
6871520659,15,2,-2,3,-2,-6,-12,-3
6871536362,-8,-3,-2,-2,-1,-6,-16,1
6871536362,-7,1,0,-2,-6,9,10,-10
6871543159,18,13,15,-6,-6,-12,-27,-4
6871543159,-1,-28,-6,23,9,11,4,8
6871559529,8,48,4,-5,-5,-9,-9,-1
6871559529,37,3,10,32,-1,4,4,5
6871561019,-14,54,19,-12,-1,-3,-5,-1
6871561019,-13,44,-39,-39,-3,-1,-6,-6
6871573805,-23,-35,-20,11,14,4,1,-6
6871573805,8,68,6,-31,-11,2,1,-3
6871580635,53,-57,38,57,12,7,9,23
6871580635,-13,71,8,-4,-20,-2,-2,1
6871596337,18,51,35,-77,1,-14,-19,-11
6871596337,-57,-69,-66,-41,0,9,4,-10
6871603190,-21,-9,-37,12,14,11,16,-10
6871603190,44,42,31,12,-9,-13,-24,13
6871619559,-7,-22,12,8,-3,3,2,0
6871619559,3,-42,22,20,5,-4,6,-2
6871621072,-15,23,-3,-14,-7,0,-13,-10
6871621072,-26,-37,0,19,11,3,-1,5
6871633859,17,14,-10,10,-7,2,-3,3
6871633859,-2,8,0,-4,2,0,2,1
6871640606,-5,-12,-9,2,-10,-15,-16,-14
6871640606,-11,-5,-4,-33,-19,-18,-8,-12
6871656346,-3,-16,0,27,-1,7,26,9
6871656346,8,32,0,14,27,6,-17,-2
6871663113,-10,19,1,-3,-12,2,-6,-3
6871663113,25,7,-6,-19,6,-12,7,4
6871679518,1,13,4,21,5,9,-6,-7
6871679518,-25,-35,-22,-26,-25,-15,45,1
6871681089,12,-14,-1,19,30,8,-9,1
6871681089,1,-44,5,5,23,18,12,4
6871693067,-2,-40,-10,11,11,-8,-2,-4
6871693067,8,1,11,16,-22,-11,-17,-9
6871702043,2,-15,-12,-25,-18,-11,-22,10
6871702043,-10,-27,-11,-8,-13,4,14,-7
6871716325,-4,-21,-10,-14,0,-14,-19,-1
6871716325,7,1,1,5,-3,-5,-16,-9
6871723103,-5,22,7,-18,-12,-5,9,0
6871723103,-18,-22,5,23,11,6,-4,-6
6871739520,4,5,-4,-4,-6,3,2,7
6871739520,-2,-2,-7,-16,4,4,-11,-2
6871741038,4,-1,-12,8,-1,-11,0,-7
6871741038,-10,3,4,5,-1,5,2,2
6871753064,-4,4,2,8,-8,-6,-7,-5
6871753064,-3,0,-1,-14,8,6,9,1
6871762031,-12,-10,9,27,4,5,0,-7
6871762031,8,-2,-26,-30,-7,0,-3,-1
6871776362,-6,-1,5,10,-9,-4,1,2
6871776362,4,6,-21,-29,-12,-8,-14,-4
6871783163,7,-3,-2,-13,12,4,5,-1
6871783163,19,6,15,32,5,2,-5,1
6871799520,-18,-10,-14,-7,-5,-5,1,-1
6871799520,-13,-10,14,24,12,11,5,1
6871801010,-3,-7,3,-12,-19,-27,-5,-5
6871801010,4,-3,-4,7,9,17,-1,-4
6871813153,30,16,-8,-1,0,-10,6,1
6871813153,-12,4,6,15,7,18,-4,5
6871822019,-2,-7,-3,-16,-4,1,5,-1
6871822019,2,5,14,0,-8,-7,-8,-2
6871836336,2,-2,-5,-13,-14,-9,2,-2
6871836336,-3,-3,-2,5,1,-16,-29,-5
6871843169,3,-3,0,-3,-5,8,1,-5
6871843169,-3,0,-3,9,6,-7,-13,5
6871859494,-15,-8,-2,-7,3,20,-4,-7
6871859494,8,-9,5,5,2,-9,6,1
6871860999,3,5,-3,-4,1,-5,-5,4
6871860999,-4,-2,-1,-12,-17,2,5,-7
6871873217,-11,-2,-4,-3,1,-13,-20,0
6871873217,10,5,4,1,-2,10,15,0
6871882023,1,7,-3,-5,0,4,-16,1
6871882023,-9,-13,-3,3,0,-3,4,0
6871896386,2,-2,-6,3,5,2,5,2
6871896386,-5,2,10,12,-2,-3,1,-4
6871903151,-2,3,-2,-6,-9,2,-1,-2
6871903151,-8,-7,1,0,3,-4,2,-2
6871919430,-7,-5,-3,-12,-3,3,6,1
6871919430,5,8,4,13,-1,0,-8,-7
6871921006,-3,1,-2,9,9,-8,-4,5
6871921006,-1,-6,-5,-8,-6,0,-1,0
6871933184,6,-6,-6,4,-1,1,-6,-1
6871933184,-19,-6,4,-9,0,-3,7,-6
6871941995,-2,4,11,12,0,5,1,-1
6871941995,4,4,-5,1,3,1,0,-2
6871956298,7,7,11,-15,-10,-7,-1,1
6871956298,6,2,-7,18,10,5,-3,2
6871963190,1,1,-8,-3,1,1,4,-6
6871963190,3,3,-5,-6,-1,-2,3,5
6871979526,-3,0,-1,-2,-5,-7,-3,0
6871979526,-6,4,5,0,-2,0,17,1
6871980992,-10,0,-4,2,4,0,-13,-2
6871980992,-28,-1,4,1,1,-2,2,-9
6871993162,-4,-14,-5,2,0,-4,-1,-4
6871993162,10,8,-11,-14,-11,-2,-5,2
6872002023,3,-8,-3,1,7,4,16,0
6872002023,6,4,5,-11,-1,9,-13,0
6872016391,2,2,1,18,1,-7,-2,1
6872016391,0,-6,-7,-14,-2,-3,-7,0
6872023158,-8,-4,-4,-12,-12,-13,5,-6
6872023158,6,3,1,11,2,-3,-1,-1
6872039419,2,-2,4,0,4,7,-1,-1
6872039419,5,2,1,-1,3,5,5,1
6872041019,4,-3,-7,-6,-9,-5,-8,1
6872041019,3,2,-2,-11,-7,-3,3,-3
6872062001,-24,-14,-4,3,2,-5,-3,-1
6872062001,6,-1,-2,-5,-9,-11,-3,-4
6872063465,-12,2,2,-9,4,17,-11,1
6872063465,5,2,3,10,-1,-15,-1,1
6872076309,8,-1,-5,8,14,14,6,0
6872076309,-4,6,5,1,1,5,-12,2
6872083144,-2,-8,-3,-3,-6,-11,4,-1
6872083144,1,-9,-2,0,-4,4,-3,-2
6872099535,-4,0,4,-6,-7,-7,1,-1
6872099535,-4,-5,3,-3,-6,-13,-6,-5
6872101018,2,0,-3,-1,1,15,2,-5
6872101018,1,-3,1,0,-1,2,2,4
6872121982,10,-5,-9,-6,0,-7,-7,-1
6872121982,-17,-6,0,1,4,2,4,-3
6872123540,0,18,3,12,2,3,9,0
6872123540,11,-4,-4,-1,1,-9,2,-2
6872136331,6,7,6,-5,-4,5,-5,6
6872136331,-11,2,1,0,-9,-2,-3,-1
6872143162,1,-9,-6,-2,-6,-7,-3,-4
6872143162,-14,-13,1,-3,2,-10,2,-1
6872159511,13,11,-1,1,2,18,-3,-1
6872159511,3,0,-2,-1,6,-4,0,1
6872160969,-2,-11,-4,1,-4,-8,0,1
6872160969,9,1,-3,1,-3,2,-2,-3
6872173126,-10,5,2,0,-3,-10,-1,1
6872173126,4,-7,-8,-7,-8,-2,-3,-2
6872182085,-8,-7,-1,-7,0,1,-1,-3
6872182085,3,3,0,4,-3,-8,-1,0
6872196386,3,-3,1,3,4,10,-9,-3
6872196386,-3,3,4,4,0,2,4,1
6872203140,2,0,-3,-4,-5,-14,-3,-1
6872203140,-4,2,-3,-8,-5,0,1,-3
6872218817,-2,-5,-2,1,-4,-4,4,-1
6872218817,-4,-3,0,7,3,11,4,-2
6872219515,0,3,2,-8,6,-1,-3,1
6872219515,-2,-2,-5,0,-5,-1,-1,0
6872241041,-1,-5,-3,4,5,-3,3,-4
6872241041,4,-2,-2,-9,-7,-4,-3,0
6872248136,3,2,0,-7,-3,-3,2,0
6872248136,-8,0,3,16,5,14,-4,-1
6872263950,1,-7,-6,-11,-7,-6,-4,-4
6872263950,-17,-3,3,0,-2,-3,-3,-2
6872264759,0,0,2,1,2,4,1,0
6872264759,-2,-4,-5,-8,-12,-14,-8,-2
6872279261,2,5,1,5,8,10,11,2
6872279261,13,-3,1,-3,1,-6,-5,0
6872280942,0,1,-1,1,-3,-3,-1,-2
6872280942,4,9,1,-2,6,4,3,1
6872301268,-11,3,0,-1,-10,-12,-13,-1
6872301268,-17,-14,-3,-5,3,7,9,-3
6872302015,6,-6,-5,6,4,2,1,0
6872302015,-3,5,1,-1,2,8,5,-2
6872317045,0,4,1,-1,0,-5,-7,-1
6872317045,-1,-7,-6,-7,-15,-5,-7,-3
6872323083,-3,-10,-2,-8,-14,-4,-10,-2
6872323083,-1,7,2,8,21,5,4,-1
6872338075,-4,-8,-5,1,1,1,2,-2
6872338075,5,4,1,-2,8,5,0,0
6872345453,0,11,-1,7,-5,-4,-1,1
6872345453,-6,-13,-7,-4,-2,-8,0,2
6872361294,1,-4,1,-3,0,9,10,1
6872361294,7,4,-2,6,8,-3,4,4
6872362014,-1,11,4,-6,-5,3,-7,-2
6872362014,-1,-8,-2,-2,-4,-4,-4,0
6872377096,5,-4,1,-1,-5,-4,3,-1
6872377096,-1,15,2,1,0,-4,1,2
6872383091,7,2,2,5,10,9,9,2
6872383091,2,-6,-3,0,-1,1,-1,0
6872398119,-4,-1,-2,5,2,-3,1,0
6872398119,5,3,-1,-8,-3,1,-5,1
6872405623,-1,-5,-1,4,3,-5,0,0
6872405623,-22,-1,0,-7,-4,6,1,-6
6872421339,1,0,-4,-8,-7,-6,-5,-1
6872421339,10,-1,-1,0,-4,-11,-1,0
6872422134,-11,-4,-1,-6,-2,11,2,2
6872422134,13,3,-5,-9,-5,-18,-2,0
6872437148,-11,-4,1,-2,5,23,2,-5
6872437148,-3,-11,-4,7,5,11,-3,-5
6872443091,7,-1,-1,2,-2,-7,4,4
6872443091,-5,3,3,-6,-11,-7,-4,-1
6872458172,-4,-1,-2,-4,-10,-10,-4,0
6872458172,10,-1,4,7,18,4,4,3
6872465585,3,3,-3,2,6,1,-4,-3
6872465585,-3,-6,1,-2,-4,7,1,1
