timestamp,emg1,emg2,emg3,emg4,emg5,emg6,emg7,emg8
6834363337,-8,-11,3,-1,1,-2,-2,0
6834363337,-5,-16,-2,-2,-1,6,-11,-5
6834364926,2,15,7,13,-1,-6,11,0
6834364926,2,-7,-7,-7,0,-1,0,-1
6834368501,4,-10,-2,6,-2,-5,-1,0
6834368501,0,9,-3,3,1,-5,-3,1
6834370025,-3,-5,2,-8,-2,4,0,2
6834370025,3,-5,-1,9,-3,-4,-3,0
6834374858,0,5,0,-2,3,3,3,-4
6834374858,-9,8,3,-2,-2,-3,3,-7
6834390225,1,-12,-5,-4,0,2,-3,-4
6834390225,2,0,8,-21,-15,-6,2,5
6834399314,1,9,-2,24,15,4,-1,-3
6834399314,2,-6,0,-2,-1,-2,1,0
6834404900,-2,-6,3,1,-1,0,-4,-5
6834404900,-5,7,-11,2,2,0,3,-1
6834413585,-5,0,0,-4,-7,-3,-1,2
6834413585,0,-13,-2,-11,-3,0,0,0
6834428589,-8,-9,-4,3,0,-8,-3,-1
6834428589,2,2,0,-4,-1,9,-3,-2
6834434952,12,8,3,-5,-3,-5,6,-1
6834434952,-6,-2,-6,0,0,2,2,-5
6834473593,10,-15,-3,0,2,2,6,6
6834473593,16,-6,-4,-1,-4,-11,-3,-14
6834481785,-2,28,4,5,2,13,-1,12
6834481785,3,-3,-3,-4,-4,-4,3,-4
6834482408,-2,-28,1,1,-2,-11,2,-10
6834482408,13,38,4,1,1,14,-2,10
6834484025,9,-12,-8,-6,-1,-7,-2,4
6834484025,-15,-26,3,3,-2,0,-6,-1
6834494687,-18,16,5,1,-2,0,11,-3
6834494687,12,10,0,-1,1,-5,-8,2
6834503598,15,-86,5,-8,-6,-2,-1,-2
6834503598,-20,81,1,8,8,2,4,-4
6834509684,9,21,-20,-13,-4,-5,-22,-1
6834509684,-25,-15,-13,-3,-4,-2,-1,-6
6834524711,5,-61,0,0,2,2,1,3
6834524711,2,24,1,-4,-8,-6,-5,-5
6834532236,-7,96,18,1,-3,2,-3,-6
6834532236,24,7,30,-11,-9,-2,0,7
6834541029,-27,0,-46,-20,11,1,7,-12
6834541029,16,-15,20,18,6,8,6,5
6834554664,5,-36,-28,-10,3,1,-4,1
6834554664,8,115,26,4,-1,0,7,12
6834563551,-7,36,0,-2,-4,-6,-9,-3
6834563551,32,-30,-9,-10,-12,-9,-12,-1
6834569516,4,-11,14,8,7,12,13,7
6834569516,-19,-45,-6,0,1,-4,6,-8
6834584669,1,19,11,14,6,4,-21,-4
6834584669,4,-5,-3,1,-5,-5,-3,6
6834592148,-3,3,-2,-9,-7,-5,-1,1
6834592148,-10,-5,-21,-7,-2,-5,-1,-6
6834608563,-17,28,5,2,-14,-6,1,-10
6834608563,1,20,7,-1,4,6,1,5
6834614682,-4,15,-10,4,6,-2,-5,-3
6834614682,-17,-13,-23,-26,-9,-2,-9,-5
6834623549,29,35,10,28,-5,-9,3,6
6834623549,-8,-11,4,-20,6,-4,-7,-7
6834629699,-7,-49,5,29,14,20,6,3
6834629699,4,-14,0,-19,10,3,6,2
6834644685,-2,-25,3,24,4,-2,-8,-5
6834644685,-10,-27,-14,-35,-37,-20,-10,-8
6834652159,-3,0,-8,-4,3,6,-2,-4
6834652159,-1,-46,-5,25,-5,6,1,-2
6834661047,13,2,10,-11,6,-10,10,3
6834661047,-11,-22,-14,18,0,4,5,-3
6834674711,-1,-8,15,1,41,-10,7,-3
6834674711,-3,-34,-8,0,-49,30,-4,0
6834683543,-8,-5,-4,-2,6,14,8,-3
6834683543,-3,-15,5,-16,-38,-29,-3,-2
6834689618,1,-26,-19,4,22,7,1,2
6834689618,-15,-10,-8,-9,26,-10,-10,-10
6834704665,-13,-2,-5,-6,-18,-10,3,-7
6834704665,4,0,-17,-9,4,25,-5,3
6834712223,-2,2,0,1,-29,-19,16,2
6834712223,-6,-10,0,-9,3,-24,-25,-8
6834721120,17,43,8,13,-2,13,31,12
6834721120,-17,-9,-12,-11,10,5,-10,-14
6834734662,1,9,5,-3,-14,0,-8,-1
6834734662,10,16,11,15,9,0,18,6
6834743544,-9,-10,15,2,0,-9,-11,-7
6834743544,7,15,-13,-22,18,2,11,8
6834749618,-8,-10,0,-8,-11,-1,-12,-3
6834749618,-12,-12,-3,-8,-4,-6,-4,-5
6834764687,-2,13,11,8,-5,-8,-16,-7
6834764687,4,-3,9,21,14,8,11,11
6834772181,14,-2,-3,-4,-8,-12,2,-3
6834772181,-3,-2,2,14,9,11,-36,4
6834781092,-7,-3,-13,-25,-9,-8,0,-1
6834781092,-1,4,0,21,8,-9,-17,-6
6834794673,-2,-3,-2,-8,-7,21,26,4
6834794673,7,3,8,11,4,2,11,-1
6834803542,0,-5,-4,-9,4,-2,-27,0
6834803542,-10,-11,3,-1,1,-4,34,-2
6834809678,3,3,8,6,-5,-11,-19,3
6834809678,0,-7,-6,-4,-3,6,-1,1
6834824719,-14,-9,-6,-7,-2,-4,-31,-4
6834824719,0,2,0,6,2,-1,23,-7
6834832185,-4,-6,1,-4,-2,2,-30,-3
6834832185,-1,0,-2,6,1,-5,21,5
6834841039,9,6,-5,-8,-2,0,-6,3
6834841039,17,6,6,9,0,-4,-10,2
6834854580,0,22,10,3,-4,1,-7,-2
6834854580,-24,-19,-14,-10,1,-7,-9,-6
6834863561,-2,-11,-5,-13,-3,3,17,-1
6834863561,4,1,4,7,3,4,-1,1
6834869708,14,49,9,-5,-2,-2,-6,4
6834869708,-9,-47,0,10,-1,-10,-2,-7
6834884622,-5,70,1,-3,-1,0,6,-1
6834884622,9,31,20,12,13,9,2,8
6834892277,-8,-40,-30,-37,-12,-8,-6,-2
6834892277,18,93,0,9,8,3,3,5
6834907156,-29,-95,-33,-26,-14,-4,4,-11
6834907156,33,32,38,17,8,4,-10,6
6834914587,-49,76,-13,3,-3,4,7,-5
6834914587,21,55,24,12,4,-5,3,-3
6834923554,-36,-83,-56,-4,5,2,3,-5
6834923554,19,9,24,-15,-12,-3,-6,1
6834929660,31,48,34,1,0,4,13,12
6834929660,26,30,-21,8,1,-1,2,3
6834944712,-13,60,26,-24,-11,-3,-1,-2
6834944712,1,50,-27,17,18,9,-3,7
6834952238,20,62,16,-8,10,-1,4,1
6834952238,-3,38,-6,-4,-11,-3,-1,-1
6834967175,51,-6,23,24,13,7,8,9
6834967175,-61,-14,-15,-39,-23,-12,12,-12
6834974682,9,-42,15,36,-3,-7,-35,-3
6834974682,-1,-2,-14,-24,6,1,15,2
6834983523,2,-27,-4,11,0,-2,-4,0
6834983523,-38,49,-4,7,-1,-3,-5,-13
6834989685,14,-10,-5,-4,-14,-14,8,-6
6834989685,-27,-52,2,-6,-5,0,38,2
6835004632,31,46,4,5,5,9,16,7
6835004632,-1,-5,-1,13,16,2,-14,-1
6835012131,-1,-17,-8,-25,-18,-10,5,-5
6835012131,4,0,4,15,6,4,-8,-4
6835027100,-5,8,14,29,-16,-8,2,-5
6835027100,1,-59,-23,-42,16,12,-1,-1
6835034657,-14,-46,-9,7,13,-12,-7,-6
6835034657,-10,-40,18,-1,-16,7,-12,-4
6835043547,-13,-25,-26,-44,-3,-19,-9,-5
6835043547,-2,-40,-6,18,-17,-15,-19,-6
6835049617,-6,-28,3,41,25,25,17,-1
6835049617,4,-10,1,-16,9,10,8,4
6835064685,-9,-14,5,6,7,2,-6,-6
6835064685,3,-4,-9,-6,-8,-23,-11,-3
6835072183,4,-1,-10,-27,-14,-6,-1,2
6835072183,4,4,-6,18,5,-9,-13,-8
6835087183,-11,5,12,2,15,14,-27,4
6835087183,8,-19,-17,-3,-10,-6,-6,0
6835094598,11,5,-13,5,-12,1,8,7
6835094598,-12,-6,17,-9,-6,-2,-7,-7
6835103499,12,23,-9,-20,-1,-14,-6,1
6835103499,-15,6,28,29,3,8,6,-7
6835109698,-2,5,9,-14,3,-2,-2,-2
6835109698,10,9,-8,3,6,8,-8,6
6835124656,1,23,-19,-16,-20,-9,2,-4
6835124656,-4,-17,0,7,-8,2,2,-2
6835132162,4,-16,-10,2,-6,-5,-2,2
6835132162,-3,-6,-15,-31,-2,-6,0,-1
6835147171,-3,-15,2,8,-5,-5,-2,-8
6835147171,7,4,-1,6,-3,7,35,5
6835154583,-15,-31,2,3,6,3,-23,0
6835154583,-3,-16,1,13,-2,-25,3,3
6835163741,13,9,13,21,9,20,17,-4
6835163741,5,-6,-6,-15,7,21,21,10
6835169554,3,-8,-17,-8,-8,0,17,-4
6835169554,-23,-8,3,7,4,-6,-10,-4
6835184613,-4,-18,0,-6,-4,4,-56,-4
6835184613,8,-7,-2,-4,-7,-10,24,4
6835192147,3,17,7,1,2,11,3,-2
6835192147,-2,-4,1,-1,-4,-4,-3,-5
6835207180,1,9,2,1,3,5,-7,8
6835207180,-2,-4,-6,-2,2,-8,-22,-6
6835214617,-13,-6,4,1,0,5,3,-1
6835214617,-2,-8,-7,-6,-5,0,17,-9
6835223546,5,6,7,4,-1,-2,14,2
6835223546,11,34,4,-1,0,3,-8,2
6835237848,-6,-27,-3,-7,-4,-13,-2,-1
6835237848,-13,6,-8,8,-2,4,-9,-5
6835244666,7,27,17,18,1,-1,12,0
6835244666,-17,18,-26,-31,0,0,-11,8
6835252181,21,-2,-6,-21,-2,-10,-8,-8
6835252181,-11,33,3,-11,-6,7,2,9
6835267115,-23,-22,-1,28,1,-5,3,-6
6835267115,8,-69,-13,-19,-8,-5,-9,-8
6835274628,22,115,50,39,24,16,11,15
6835274628,-42,-86,-61,-33,-4,-2,-20,-30
6835283532,0,48,-19,-26,-14,-10,5,-2
6835283532,-5,31,21,15,-7,-6,-16,-3
6835297852,17,-49,-12,-7,-1,1,0,8
6835297852,50,-23,43,26,-2,2,1,19
6835304638,-35,61,-21,-8,6,0,35,-11
6835304638,-7,3,-11,-4,-4,-1,-33,1
6835312160,-25,-23,-17,-21,-8,-10,-16,-16
6835312160,33,15,20,28,8,5,11,12
6835327171,3,-62,1,-3,-6,0,2,5
6835327171,-19,-46,-25,9,-4,-10,-5,-9
6835334658,1,64,15,2,-1,2,-1,0
6835334658,-10,-2,-1,-26,5,6,14,-2
6835343521,35,55,46,14,1,-1,1,12
6835343521,-27,-35,-76,-36,0,-5,-7,-15
6835357859,-23,-41,-18,5,-10,-7,-10,-5
6835357859,7,12,7,-24,-23,-15,-8,-3
6835364659,-1,26,0,41,12,4,-7,3
6835364659,17,12,6,-17,2,9,5,-1
6835372135,-18,0,-11,-5,1,-5,-1,-7
6835372135,-5,27,-2,12,13,13,7,8
6835387153,13,-21,2,-15,0,-10,-12,-2
6835387153,6,14,42,43,-18,6,9,2
6835394685,1,-4,-20,-39,7,5,12,-2
6835394685,-4,-17,-4,-4,-15,-18,-12,-4
6835403582,1,-25,5,17,-7,12,-8,-1
6835403582,2,-16,-17,-17,-13,5,10,-2
6835417855,-16,-35,8,15,11,-15,-3,-3
6835417855,4,-4,3,21,7,17,10,2
6835424661,-5,-40,-16,-18,15,-8,0,-4
6835424661,3,8,17,13,-2,-8,-6,2
6835432152,-7,-8,-2,-5,-29,-13,2,-1
6835432152,-16,-9,-2,-3,-11,8,-13,-8
6835447184,4,2,-3,2,33,-5,-2,2
6835447184,14,16,27,16,4,9,18,9
6835454733,6,0,3,15,19,19,15,6
6835454733,-4,10,-5,-11,-20,-19,-17,-8
6835469694,-8,1,-2,-14,0,15,7,-3
6835469694,1,5,7,1,17,-11,-2,-2
6835477720,-3,-5,-26,-15,-19,0,-6,-3
6835477720,7,7,-20,-2,9,-4,9,4
6835492840,3,4,9,9,-16,-6,-8,0
6835492840,-3,2,-4,-26,0,-3,-11,-4
6835493543,11,-11,-7,22,8,5,-3,3
6835493543,-6,-20,-2,4,-3,-5,-20,-5
6835507202,-10,-22,-3,-10,-5,0,8,-4
6835507202,8,6,7,12,3,5,-5,4
6835514704,-11,-22,-12,-22,-12,-5,1,-5
6835514704,6,6,-8,-9,3,-8,11,-4
6835529643,-1,-1,5,1,-3,8,30,5
6835529643,1,15,12,7,1,0,-26,0
6835537827,-4,-9,2,3,0,0,-1,-4
6835537827,-10,10,17,13,7,-3,-4,0
6835552832,1,-23,-21,-16,-5,13,3,3
6835552832,2,-6,5,0,-1,-10,-15,3
6835553524,-7,2,5,1,-6,-1,-27,-4
6835553524,1,0,-2,-5,2,-14,1,-1
6835567129,-8,-2,3,-6,-7,-14,-29,-10
6835567129,3,-6,-3,-1,7,31,53,4
6835575349,-15,1,5,6,0,-11,-19,-5
6835575349,-6,-7,-1,1,0,0,7,2
6835589693,-3,-10,-4,-6,-3,-13,2,-4
6835589693,2,-3,-1,2,-4,-12,-5,-4
6835597818,13,13,3,1,0,-14,4,-1
6835597818,2,3,-1,-5,1,18,5,4
6835612759,-1,-3,0,-1,0,-4,-3,3
6835612759,-10,3,1,-2,2,-7,-5,-5
6835613518,3,-1,-2,-2,-1,1,17,0
6835613518,15,19,7,8,0,-2,-14,6
6835627171,-6,0,-6,-8,-9,-1,7,-1
6835627171,2,31,17,5,3,-3,6,-2
6835635327,4,-7,-8,-6,-5,-8,-1,2
6835635327,3,3,10,19,14,14,-5,1
6835649606,-18,-23,-17,-1,4,3,8,-1
6835649606,-23,-7,-6,-7,-4,0,0,-9
6835657838,-16,-15,-1,-1,-7,-10,3,-1
6835657838,16,9,-5,-10,-1,-2,-2,-3
6835672827,19,86,31,9,-5,-5,-3,10
6835672827,-11,-82,-27,-18,-3,-3,-9,-7
6835673524,23,30,18,32,2,3,-8,-2
6835673524,-32,-15,-31,5,-2,-8,-2,-7
6835687168,3,-5,8,-4,-6,-2,-11,-3
6835687168,-6,29,9,2,4,-2,-1,-4
6835695345,-4,-77,-4,-9,-3,0,-2,2
6835695345,26,-3,-2,-11,0,7,4,4
6835709667,-19,-12,9,13,3,1,-1,-4
6835709667,7,34,-34,-30,-6,-8,-7,2
6835717734,-19,-25,-5,-7,3,5,1,-3
6835717734,24,-11,14,20,9,2,0,-1
6835732744,-11,-6,-21,-10,-10,0,-3,-10
6835732744,12,16,22,22,2,-1,-1,5
6835733514,-26,-39,-35,-26,-9,-4,-7,-7
6835733514,-15,-8,-4,-20,-18,-15,-4,2
6835747170,47,32,17,0,5,5,1,6
6835747170,-12,-3,0,21,1,-7,-10,-3
6835755311,-19,24,-9,-13,11,26,25,-6
6835755311,10,25,-1,0,0,5,-5,-3
6835769664,36,4,-2,-3,5,-13,-12,2
6835769664,-16,22,8,-1,-15,6,-35,-5
6835777808,2,23,6,10,22,4,-1,5
6835777808,-17,-1,16,4,-20,-17,-1,-6
6835792795,6,-9,-13,4,16,21,9,3
6835792795,27,-45,-18,-8,0,-29,-4,0
6835793495,9,13,19,-24,-44,1,-1,4
6835793495,-13,-12,1,9,21,12,2,-10
6835807138,-13,-33,-9,15,19,-2,1,4
6835807138,-2,-10,9,5,-27,-1,8,1
6835815273,-4,0,-9,-8,4,-2,-4,-4
6835815273,3,-9,0,-8,-9,-10,8,2
6835829539,-19,-15,9,15,-13,-9,-5,-8
6835829539,-10,-29,-19,-29,28,26,7,-3
6835837832,24,24,20,37,-19,-17,1,3
6835837832,4,9,1,0,-6,-5,-8,4
6835852702,-17,-25,-21,-34,12,8,-1,-2
6835852702,-5,1,7,4,-11,-3,8,0
6835853483,11,14,-16,16,7,-6,-5,-2
6835853483,-8,6,10,-2,-17,-3,-9,-3
6835876055,-17,-27,-9,19,27,11,8,-5
6835876055,6,8,13,-18,-10,-5,5,3
6835876692,2,0,-10,-41,-7,8,0,0
6835876692,-10,-11,-7,8,38,7,12,-2
6835889686,3,4,-1,-6,-19,-5,4,1
6835889686,-4,10,27,55,13,2,2,-2
6835897838,-7,-3,-25,-49,-7,-15,-10,-5
6835897838,11,9,-9,-2,-7,-3,1,3
6835912708,-11,-4,-10,-17,-33,-17,-9,-2
6835912708,16,14,5,-7,20,12,8,3
6835913640,3,12,9,62,24,1,1,3
6835913640,-18,-2,-10,-6,-7,6,-5,-4
6835927137,-1,7,4,1,-4,-9,-2,2
6835927137,-4,-6,-11,-7,-16,0,2,-4
6835935348,4,-2,23,7,6,14,-13,1
6835935348,3,-2,-1,-19,-7,-9,8,-6
6835949653,25,13,2,-1,-1,-16,-13,9
6835949653,-34,-15,4,6,9,13,2,-6
6835957829,-16,-12,3,-2,-3,1,-4,-2
6835957829,-1,-10,-5,0,2,6,9,-2
6835972798,-6,1,-1,-10,-14,-13,-9,-6
6835972798,23,5,-7,-5,0,-5,7,2
6835973498,4,1,3,8,7,-8,12,-3
6835973498,-11,3,3,4,3,6,-59,0
6835987061,3,-4,-4,-3,-3,7,11,-1
6835987061,14,7,-7,-6,-4,-3,7,1
6835995256,-20,-14,-4,-1,-4,-2,-12,2
6835995256,9,-9,4,-9,-14,-8,-3,-1
6836009653,-11,-14,-6,-6,6,-3,-5,-4
6836009653,7,3,-3,3,5,0,-6,-1
6836017840,-14,4,5,-4,-5,2,6,-7
6836017840,-2,5,-6,-7,-6,0,17,1
6836032812,-9,-2,-5,-2,0,11,-11,-2
6836032812,-7,-29,-17,-3,-11,-19,-4,-2
6836033495,-1,18,-1,-10,-1,-5,-3,-4
6836033495,10,42,17,-10,-7,-4,2,2
6836047078,-13,10,-17,0,7,8,8,-5
6836047078,23,96,19,21,3,5,0,6
6836055283,11,-106,-4,-10,0,2,-6,-5
6836055283,-13,60,-25,-3,-3,-2,6,1
6836069578,-17,9,15,2,-7,-6,-3,-6
6836069578,8,2,-9,-20,-7,-6,-5,-1
6836077811,9,17,17,25,7,6,6,8
6836077811,-6,30,8,7,1,-18,-2,-7
6836092105,7,-18,21,0,0,21,5,2
6836092105,-11,-88,-3,-9,-2,2,-4,-6
6836101054,-17,-17,-42,-6,2,-7,0,-2
6836101054,43,64,12,-2,1,3,0,10
6836107125,-16,-27,-9,-8,6,5,0,-8
6836107125,-3,16,0,-11,-16,-11,-5,-5
6836122140,4,89,20,13,6,1,0,5
6836122140,-12,-36,-17,-1,2,-6,-7,-5
6836129612,34,7,32,1,-10,-6,0,7
6836129612,-43,-40,-17,2,8,2,-3,-8
6836138484,27,24,23,15,6,8,10,2
6836138484,5,-45,-23,-20,-11,3,1,3
6836152140,24,3,0,6,-7,-20,-3,-3
6836152140,-23,50,14,19,14,38,6,4
6836167475,4,6,-4,-9,-6,-12,-22,-7
6836167475,-9,-8,18,37,13,4,25,2
6836176014,2,-5,-23,-26,-17,12,11,6
6836176014,11,0,-8,-10,24,-7,-11,-4
6836177474,-8,0,-2,-7,-36,-18,3,-8
6836177474,-2,-33,-2,-14,13,15,39,6
6836189639,-13,5,-4,8,-21,-2,-26,-8
6836189639,11,-1,10,45,25,-2,6,11
6836198453,-8,-9,-26,-34,28,11,10,-3
6836198453,-14,-24,2,6,7,-4,-12,-8
6836212111,-1,-2,-7,-29,1,-13,-2,-1
6836212111,-1,-26,-9,15,-13,-15,2,-2
6836221050,6,-19,0,4,-24,-4,-16,-3
6836221050,10,-21,-11,-20,-20,-14,-3,0
6836227157,-14,7,6,22,25,16,6,-1
6836227157,4,-18,-11,-21,-14,-11,-9,-3
6836235995,0,4,5,25,18,-2,11,6
6836235995,8,0,1,-11,-18,-2,-9,2
6836249659,-20,7,-4,18,20,8,16,1
6836249659,-1,10,-2,2,2,-7,-7,-6
6836258486,1,18,26,22,-12,1,-2,-1
6836258486,-2,-15,-25,-54,0,-1,-4,-1
6836272076,10,-2,-6,-2,2,-4,5,4
6836272076,-18,-4,6,12,-24,-17,-17,-9
6836281065,-1,-2,-22,-30,6,5,4,3
6836281065,-4,1,22,20,3,3,-10,-3
6836295938,2,8,10,-27,-19,-13,1,-2
6836295938,1,6,-3,-11,3,11,9,0
6836297520,-1,-12,-3,5,-5,-4,0,-1
6836297520,-10,-3,-1,2,6,9,-3,-4
6836309598,-6,-7,-3,35,-6,-14,-5,-4
6836309598,14,10,4,2,1,-2,8,7
6836318501,-1,4,-3,-4,2,3,-10,-3
6836318501,0,-8,-5,5,10,-4,1,3
6836332101,-7,5,4,8,4,0,4,-1
6836332101,8,-8,-2,-18,-14,0,-22,1
6836341003,-5,-8,-18,-13,-1,15,31,-6
6836341003,-28,-10,6,18,5,9,-7,-3
6836354622,6,-4,0,-5,-3,-1,0,-1
6836354622,-3,-1,-5,-16,-6,-3,6,0
6836363450,7,-12,-2,-2,-4,-28,-4,0
6836363450,4,1,1,14,3,20,4,-7
6836369593,-8,0,0,-5,0,-10,-4,-3
6836369593,0,2,1,-9,6,5,11,5
6836378492,2,8,10,7,0,2,-8,-2
6836378492,0,-11,6,3,-2,-3,0,3
6836392030,6,-8,-10,-8,-3,-4,-11,-1
6836392030,-2,-23,-5,-5,-6,0,12,0
6836401007,11,2,9,9,-2,2,-12,-1
6836401007,-18,-11,-17,-12,-3,-2,3,-5
6836415986,-14,-1,8,-3,-4,-3,-10,-4
6836415986,13,8,-5,-4,5,2,-4,-3
6836417475,17,14,-1,16,1,-3,5,6
6836417475,-14,-46,-8,-5,-11,-4,-7,-4
6836429610,1,31,-8,1,14,13,2,-2
6836429610,5,18,8,-13,-9,-2,3,3
6836438516,-14,6,-8,-3,8,3,-1,-8
6836438516,14,14,0,3,-1,-3,-1,3
6836452111,5,26,21,20,-7,1,-2,2
6836452111,-5,-18,-10,13,7,-2,-1,-1
6836461007,-13,58,39,-14,-7,-5,-10,-4
6836461007,14,5,-14,-16,-9,-7,-4,0
6836476033,2,10,-6,21,9,6,6,0
6836476033,7,0,-16,-8,6,-2,-4,1
6836477489,-32,-21,22,-12,-14,-3,-6,-3
6836477489,-14,-62,-15,31,19,0,-1,-7
6836489585,10,58,16,-10,-17,-7,0,-3
6836489585,-5,28,23,15,-11,-6,-3,-1
6836498468,21,-3,-51,-34,-4,0,-3,6
6836498468,-9,64,23,-1,-10,-5,-6,-3
6836512016,-11,-6,-12,-7,11,1,-4,-3
6836512016,3,-13,9,23,5,4,1,-2
6836520986,5,-35,-10,9,12,9,5,-1
6836520986,19,26,8,-12,-15,-10,-7,7
6836535975,-12,-14,-5,-1,-2,-5,-8,-6
6836535975,-18,-26,0,0,7,7,10,-7
6836537446,0,2,8,1,-5,-30,-6,5
6836537446,-9,-1,-8,1,-4,28,-8,-6
6836549507,3,-13,-5,-8,-1,1,-17,3
6836549507,6,-9,-6,-18,-11,-5,-3,-1
6836558484,-4,-18,-10,4,2,4,12,-2
6836558484,3,33,14,4,-6,-8,-4,-6
6836572103,-9,-41,-17,-7,11,-6,-6,-5
6836572103,12,11,-6,-12,-11,18,6,5
6836581028,-10,1,6,-2,13,2,-2,1
6836581028,2,6,-6,8,-26,-20,-16,2
6836595884,6,-5,1,3,-7,3,11,-3
6836595884,-16,-2,-28,-32,10,-4,-6,-5
6836597478,3,-9,-2,-4,-5,3,-6,2
6836597478,7,-22,8,-4,2,-7,6,0
6836609597,2,-23,-16,2,7,9,5,5
6836609597,-9,3,3,-14,-25,-15,-6,-5
6836618503,-16,-35,-11,8,10,9,2,-6
6836618503,4,7,4,10,10,4,4,2
6836632086,-1,-15,6,3,-21,-3,3,-2
6836632086,-5,2,-7,2,15,5,-1,-2
6836640972,-1,-3,-14,6,4,-2,1,-4
6836640972,7,-4,-11,-32,-15,-8,2,1
6836655972,0,1,12,55,10,-1,-5,2
6836655972,-4,2,-11,-28,-9,-4,-3,-2
6836657440,6,11,13,15,3,7,7,3
6836657440,2,-9,-32,-12,6,9,-8,0
6836669633,1,-5,9,-16,-1,-2,-3,3
6836669633,11,11,7,15,1,-5,2,-5
6836678440,-9,-14,2,5,-10,6,-10,0
6836678440,-7,-1,11,1,2,-23,-1,-5
6836692112,-4,-2,-14,-22,-7,-19,5,-9
6836692112,8,13,13,15,4,6,10,10
6836701026,16,17,0,-8,-8,4,-6,-2
6836701026,-16,-16,5,8,8,6,3,-1
6836715989,-6,-8,-11,-28,-7,1,-1,-6
6836715989,-5,-10,-2,6,2,-8,-10,0
6836717467,5,13,4,-4,-7,0,10,2
6836717467,-3,-8,-3,4,11,24,4,-1
6836729585,12,9,-1,2,8,3,11,7
6836729585,-21,-5,2,-2,-10,-50,-24,-3
6836738498,-3,-18,4,-2,-1,34,8,-12
6836738498,13,10,7,5,6,-14,-55,9
6836752093,-6,-4,1,-8,-4,4,-10,-3
6836752093,4,-11,-4,3,3,40,-14,1
6836760968,-4,-3,-5,-3,-3,-25,19,-5
6836760968,-12,-12,-1,3,0,-11,-45,-6
6836775953,17,-3,-2,-7,-4,-9,17,-3
6836775953,-11,-9,5,2,0,3,-9,3
6836777444,-29,6,0,-2,-2,-10,-8,3
6836777444,-3,-1,-1,-1,2,29,28,-2
6836789624,2,-2,-1,-1,0,-10,-10,0
6836789624,23,32,3,1,-3,2,10,3
6836798472,35,37,18,12,1,-12,-5,2
6836798472,-39,2,-33,-15,-3,-33,10,-9
6836812111,-2,-48,8,4,0,35,11,1
6836812111,-13,37,14,12,4,5,18,-2
6836821000,10,20,-8,-6,-13,-9,-11,10
6836821000,9,82,36,6,-2,-6,9,-1
6836835989,-53,-79,-72,-27,-8,-5,-12,-21
6836835989,15,33,27,-5,-10,-3,-2,-2
6836837455,-10,-55,-11,6,17,-5,-6,-5
6836837455,14,0,13,30,-4,14,15,1
6836849579,6,-8,-19,-31,15,1,-1,7
6836849579,-12,5,25,39,-14,-6,-4,-5
6836858493,-8,-36,-56,-43,-15,-10,-15,-8
6836858493,16,32,-9,-27,10,6,19,4
6836872082,23,60,39,30,-16,-9,-8,4
6836872082,-37,-98,-46,-30,2,-8,-6,-12
6836880965,23,93,7,-6,-5,4,0,8
6836880965,-16,-107,7,-2,-7,-6,6,-6
6836895973,6,72,-29,9,5,6,2,8
6836895973,0,45,7,-6,1,-1,-8,-12
6836897443,-19,-70,-15,15,-3,-4,-5,-2
6836897443,0,-1,-22,-36,-9,-6,7,-5
6836909632,11,-33,29,14,-6,-4,0,3
6836909632,31,23,-6,1,6,6,12,11
6836918462,-33,-41,4,-4,2,9,-5,-8
6836918462,30,20,-7,6,-16,-24,-21,-1
6836932118,-8,-10,0,-17,-5,-1,7,0
6836932118,-31,1,-9,-12,-6,-4,4,-13
6836940931,16,18,13,21,6,9,11,8
6836940931,0,-4,4,6,6,7,6,1
6836955824,4,8,8,15,4,-16,-17,-4
6836955824,17,-11,-4,-33,-33,0,-2,4
6836957413,-5,-4,-3,0,20,-1,4,-4
6836957413,-8,-38,0,-7,-6,-12,12,1
6836969612,3,12,15,33,9,13,-7,0
6836969612,-11,-40,-11,-6,9,-19,2,-1
6836978477,-2,-17,5,3,-13,13,-11,-3
6836978477,-1,0,0,29,8,8,5,-1
6836992107,-3,-3,-6,-14,7,-16,1,0
6836992107,6,-11,-3,-4,-20,16,5,3
6837000990,0,14,11,36,17,-18,-9,-4
6837000990,-10,-5,20,22,9,20,10,-4
6837015972,-2,12,-15,-35,-4,2,0,2
6837015972,-6,-18,1,-31,0,-18,-1,-2
6837017444,8,22,-17,-7,0,18,3,3
6837017444,4,23,20,-22,-4,-6,-8,4
6837029568,-4,1,6,39,7,-3,8,0
6837029568,2,-5,-24,-21,7,9,-7,1
6837038449,-14,-15,8,0,-19,-15,-8,-9
6837038449,6,7,18,-44,-28,-10,6,5
6837052086,-9,-19,-30,22,43,18,5,-2
6837052086,10,7,-11,13,9,4,5,5
6837060974,7,7,7,18,-13,2,1,2
6837060974,-13,-14,-4,34,-11,-18,-2,-2
6837075970,-2,3,17,-21,-18,11,-7,-3
6837075970,6,-5,5,18,18,6,6,1
6837077406,-3,-2,0,-9,-1,-3,7,1
6837077406,-9,-12,-9,0,10,7,-9,-3
6837089581,11,3,3,-16,-7,-7,3,2
6837089581,-4,-2,2,16,6,-33,-5,0
6837098422,0,10,10,-15,-7,33,-27,-3
6837098422,-3,-3,-18,-6,3,-7,15,9
6837112018,-2,9,9,-5,-11,-6,-5,0
6837112018,2,-2,5,17,1,5,24,-3
6837120977,5,-1,-11,-23,-8,-27,1,-35
6837120977,0,2,-9,2,10,30,-77,68
6837135294,-4,-5,6,-2,-2,-9,25,-6
6837135294,-15,-1,3,-2,-7,-4,-3,-18
6837142112,-5,-5,5,-3,4,-14,12,5
6837142112,9,-6,-8,5,7,9,1,-15
6837149614,2,3,7,-10,-13,-6,-8,5
6837149614,7,-13,-11,1,4,11,-9,3
6837158497,-7,-2,9,-2,2,4,3,10
6837158497,-40,-9,-5,4,2,-11,9,-19
6837172084,5,1,-1,-8,-5,-1,-9,3
6837172084,7,7,-1,1,-2,-5,-4,-10
6837180942,2,3,-1,-6,-5,-9,0,4
6837180942,31,13,-6,5,4,4,21,-11
6837195225,-24,-49,-3,-10,-5,-7,-1,-13
6837195225,-3,45,5,-3,-7,-3,-18,5
6837201978,2,-8,-12,-20,-10,5,5,11
6837201978,-12,-15,-4,15,19,4,3,-17
6837209595,9,26,7,10,8,15,7,7
6837209595,8,18,19,41,-3,-1,-10,4
6837218463,-7,-41,-35,-70,-1,-4,-9,-2
6837218463,-5,15,-1,21,-14,-16,2,-20
6837232044,11,39,29,-12,-20,-6,-5,4
6837232044,-10,-34,-27,-11,16,6,6,4
6837240965,-2,-13,13,32,-2,-6,0,-3
6837240965,19,-3,-18,-29,4,3,7,4
6837255160,11,58,23,15,1,8,1,-2
6837255160,-5,16,20,-2,-7,1,-9,-3
6837262059,-5,30,2,18,0,-6,-4,1
6837262059,23,14,5,-7,-3,-2,0,0
6837269504,-12,9,2,7,10,-4,-5,-2
6837269504,-4,-6,-7,-3,8,11,1,-1
6837284512,-9,-37,-15,1,-6,-7,0,-3
6837284512,-2,35,3,-19,-12,-4,-1,-4
6837292041,5,1,2,1,-5,-11,3,-6
6837292041,-11,-50,-16,-10,5,3,-15,3
6837300952,9,21,10,20,2,-5,-8,-7
6837300952,-26,-43,4,19,-3,-14,-7,-4
6837315214,23,25,-9,-4,4,11,6,5
6837315214,-29,15,3,-7,-10,27,10,-5
6837322082,6,40,12,6,7,-8,-5,-1
6837322082,18,32,8,10,8,9,26,7
6837338445,1,-47,-19,-19,-8,-6,-1,1
6837338445,5,-19,-15,-13,-26,-8,-54,-5
6837339919,6,4,0,-10,4,-11,21,3
6837339919,-37,-45,6,8,-21,4,-13,-7
6837352110,0,-22,-16,-17,13,-6,-1,-5
6837352110,11,2,6,11,-1,-2,-9,8
6837360925,-12,-24,8,13,-21,-9,-22,-7
6837360925,-1,-13,-13,-29,16,-1,-10,-5
6837375314,-8,-15,-5,7,2,-2,9,-5
6837375314,6,2,5,-13,-25,-5,-8,5
6837382114,4,7,-2,-3,28,16,6,0
6837382114,10,15,4,24,4,-7,7,3
6837398422,-2,6,-12,-14,-12,-1,-7,2
6837398422,0,-4,-9,-9,8,1,18,-7
6837399912,-1,4,-2,-9,-8,-6,-7,2
6837399912,2,-1,2,7,-1,6,10,-1
6837412085,-2,2,3,18,12,-2,-12,2
6837412085,-13,-28,13,-7,-12,-14,9,-6
6837420958,6,7,-9,-6,4,12,7,3
6837420958,-11,5,-4,-7,4,3,-7,-6
6837443295,-8,-15,-5,-9,-13,0,3,-6
6837443295,0,-7,8,29,8,-14,-2,-2
6837444928,-3,-20,-22,-34,-4,1,0,-1
6837444928,1,-6,-7,-10,4,-4,3,0
6837458422,-13,-6,-6,10,-7,3,1,1
6837458422,4,-17,-6,-6,-10,-16,-2,-7
6837459918,-18,10,17,20,21,25,18,9
6837459918,7,7,-3,-11,1,-3,-1,1
6837472060,-9,-24,-9,-11,-9,2,-4,1
6837472060,-1,-11,-14,2,12,-4,4,-1
6837480939,-2,-6,0,-5,-19,-21,-3,-8
6837480939,-5,-9,-12,-5,-3,-2,-12,3
6837495273,18,7,1,-5,-8,2,-2,-7
6837495273,-2,17,6,4,13,49,11,9
6837501997,2,-4,-8,-7,-10,-12,-15,1
6837501997,8,-12,5,0,-5,3,-29,-10
6837518459,4,-11,-4,0,1,-12,22,10
6837518459,-10,-1,3,-3,-2,-26,85,-17
6837519944,17,-9,6,13,5,11,6,3
6837519944,-19,6,9,2,-2,-37,-21,15
6837532062,2,10,1,-1,1,49,0,-7
6837532062,-4,1,-9,-5,2,-31,-34,3
6837540939,8,11,9,5,-7,25,6,-20
6837540939,11,6,1,-6,-4,-21,16,-15
6837555277,-6,-42,-7,-5,1,-14,-10,4
6837555277,-21,-28,-7,-4,-4,-1,-17,2
6837561954,-31,-52,-21,-3,-8,-22,-23,-16
6837561954,18,12,12,3,2,21,-1,13
6837578344,-5,27,-7,-3,-6,-6,-11,-4
6837578344,47,63,13,1,9,15,-2,8
6837579919,-33,-34,-17,-19,-8,-7,-12,2
6837579919,11,54,33,7,3,8,24,1
6837592103,-22,-66,-43,-9,1,-5,1,-6
6837592103,-16,-30,-18,-16,-6,-8,-11,-5
6837600934,21,56,22,-3,-7,0,7,8
6837600934,-32,24,-9,0,0,1,-1,-7
6837615242,15,-10,10,-8,-9,-14,-16,-6
6837615242,-9,10,4,43,14,10,-6,1
6837622103,35,-17,-1,-22,5,6,6,5
6837622103,-9,38,-8,-8,-8,-2,-1,-9
6837638418,-1,3,26,38,11,0,-6,5
6837638418,12,51,10,-11,-23,-9,5,3
6837639940,2,-8,-60,-63,2,-4,12,-1
6837639940,-15,-59,29,28,13,12,-12,-8
6837652062,-14,25,-41,-32,-9,-7,-7,-7
6837652062,4,-41,25,31,3,1,-4,-1
6837660962,16,87,19,13,4,-1,2,3
6837660962,39,5,2,6,-8,-3,4,13
6837675253,-49,-4,5,-2,-7,-3,-8,-6
6837675253,-3,21,0,-15,5,1,6,1
6837681966,-2,7,18,24,1,2,-1,6
6837681966,-6,-7,-19,-12,1,4,-6,-8
6837698370,11,36,27,25,6,3,2,1
6837698370,-4,1,-15,-13,27,7,9,3
6837699921,-13,-17,15,26,1,16,-11,0
6837699921,8,-8,-15,-7,-1,-7,9,-1
6837712096,12,6,-5,-17,-15,-15,-5,0
6837712096,1,-20,-10,-25,0,-26,-17,-3
6837720913,-7,-13,6,28,4,31,2,-8
6837720913,15,-28,-11,-2,16,-10,8,5
6837735100,-13,-15,13,6,13,2,11,1
6837735100,-20,-28,-6,13,0,-14,-31,-1
6837742084,11,4,3,-18,-12,-2,34,1
6837742084,-6,-17,-4,-3,-11,0,-1,-2
6837758381,10,0,-16,-15,10,8,-5,-1
6837758381,1,1,2,19,-7,-13,-11,-10
6837759939,-16,3,-13,-55,-18,-9,-27,-4
6837759939,-6,-3,5,3,-7,11,7,2
6837772078,5,12,4,-7,-3,-13,1,0
6837772078,5,13,-2,11,-5,14,8,-1
6837781011,16,35,13,48,0,-14,-2,6
6837781011,-8,-13,-33,-37,2,0,13,0
6837795259,-12,-11,22,18,-15,7,-11,-5
6837795259,-2,18,-20,9,-9,-4,2,-3
6837801978,2,-12,-17,-31,10,-3,0,2
6837801978,-4,-10,3,27,-1,2,-7,0
6837818391,15,15,3,21,-2,-11,-3,5
6837818391,14,11,3,14,14,21,15,7
6837819917,-7,-8,8,17,8,-17,-10,-2
6837819917,-4,11,1,-9,-15,7,6,-6
6837840886,11,3,-4,-19,-3,-7,2,0
6837840886,-5,-9,1,11,8,13,14,-2
6837842362,-7,-3,-3,14,3,-8,-4,2
6837842362,4,-7,5,-10,-2,3,-22,-6
6837855259,-1,3,4,2,7,2,-3,2
6837855259,-7,-9,-7,-27,-2,9,14,0
6837862056,-2,3,5,9,-4,-8,1,1
6837862056,27,5,-12,-14,-13,-5,-9,-3
6837878357,-22,-20,-3,2,9,9,17,-4
6837878357,3,-18,2,-10,-5,3,5,0
6837879899,-24,-14,2,4,0,3,6,0
6837879899,-2,-8,-1,4,0,-20,-5,-3
6837900727,17,6,-1,3,5,-7,-3,0
6837900727,5,-1,-1,-15,-3,5,11,5
6837907061,-4,11,9,14,4,-4,17,-7
6837907061,2,5,2,-2,0,1,-35,5
6837914583,-2,-6,-3,3,6,10,8,-2
6837914583,5,4,6,-10,-6,-2,-17,1
6837923416,5,-20,-2,2,-2,-6,-4,-5
6837923416,-10,1,-3,-2,-1,-1,9,-1
6837938382,-8,8,0,-11,-4,4,-9,-5
6837938382,-12,-1,0,1,0,-7,-12,-4
6837939914,6,-29,6,16,4,1,-2,7
6837939914,18,19,-6,-13,-6,-1,7,3
6837960935,-24,19,-9,-14,-10,-8,-7,-6
6837960935,25,55,10,2,9,-1,5,4
6837962421,-6,-60,-8,-5,-5,17,-4,-2
6837962421,-18,-38,-22,7,3,1,7,-2
6837974534,14,27,7,9,2,0,0,-1
6837974534,35,3,-11,-21,-14,-10,-7,-1
6837983460,-10,91,25,-2,-5,-7,-9,-2
6837983460,-32,28,-5,3,-3,-3,-1,-16
6837998411,0,-94,14,10,18,4,1,8
6837998411,0,-17,-18,-12,4,6,3,10
6837999899,12,48,-11,-13,-11,-8,-10,-2
6837999899,20,35,23,5,3,0,5,1
6838012082,-34,-75,-21,7,-11,-10,-6,-12
6838012082,-13,36,11,-4,0,3,1,-8
6838020893,12,-17,11,7,7,3,3,6
6838020893,-21,-8,-19,-17,-7,-5,0,-4
6838035122,26,13,-11,-11,-10,-4,-9,3
6838035122,2,-1,21,22,0,3,-6,-2
6838049549,-20,-53,-22,-14,-1,0,7,-2
6838049549,-5,-11,-2,1,-3,3,-8,-2
6838057710,-10,38,4,-19,-11,-3,4,1
6838057710,-13,-16,-11,4,2,-6,2,-2
6838064556,14,18,5,-6,-5,-8,-12,0
6838064556,16,13,10,18,9,18,19,5
6838071998,-7,8,-6,-8,3,-6,-7,-5
6838071998,-6,-5,3,-1,0,7,5,-4
6838081012,-18,-1,-4,-5,-16,-11,-9,-7
6838081012,12,-26,-2,-6,-11,12,-9,6
6838095224,2,21,2,8,4,9,5,0
6838095224,-3,-11,-10,-8,12,-4,-5,0
6838101941,-1,-9,-4,6,5,12,1,-1
6838101941,-5,9,-4,7,17,-10,1,-1
6838118234,0,14,1,-5,-37,-8,-22,0
6838118234,-2,8,-1,4,-8,10,34,8
6838124434,3,5,-3,13,0,-27,-7,-10
6838124434,-9,-19,14,10,3,6,-3,-4
6838132070,13,12,3,26,20,-4,7,2
6838132070,9,-39,-11,-37,-10,-3,-3,1
6838140939,-14,-5,-7,-19,-6,6,6,-3
6838140939,1,-14,15,26,15,-14,3,-3
6838154500,1,1,11,12,1,-17,-18,-6
6838154500,-26,-13,8,-5,-20,-5,-14,-10
6838163435,15,4,-10,0,13,13,4,3
6838163435,-3,1,5,13,-14,-8,2,3
6838177691,1,-17,-37,-41,19,16,13,5
6838177691,-2,5,-9,-3,7,1,-10,-3
6838184535,9,12,26,66,-12,-3,1,-1
6838184535,1,-20,-46,-19,31,9,15,8
6838200912,0,6,-3,0,-17,-5,2,0
6838200912,0,-17,3,17,11,18,3,2
6838202403,-7,3,-15,-12,2,-3,1,0
6838202403,12,8,21,19,0,0,-10,7
6838214453,6,17,6,-3,3,0,19,2
6838214453,-11,-11,-11,-7,0,-9,-7,-7
6838223395,2,-6,12,5,-6,-3,-2,0
6838223395,-10,-4,0,-21,-14,-24,-15,-5
6838237746,1,-4,2,-8,15,22,20,3
6838237746,-6,10,12,7,-9,-1,-5,-7
6838244509,9,4,-12,-9,2,12,5,4
6838244509,-4,-6,1,-12,-7,-1,1,-23
6838260879,-9,-8,-5,4,-5,5,4,22
6838260879,4,-5,1,6,-4,-1,-15,-5
6838262399,-2,-7,-3,-13,1,3,17,-2
6838262399,-1,1,-2,-10,0,10,36,8
6838275236,9,5,10,6,-4,-13,-31,10
6838275236,-3,7,0,-2,0,-1,-16,5
6838282053,-14,-1,3,-6,10,-25,5,-10
6838282053,3,-16,5,0,-4,10,1,-1
6838297753,-22,-19,-8,-2,-10,22,-20,-18
6838297753,7,-7,-5,-1,-1,-15,25,22
6838304532,-10,-10,-5,-4,-1,-8,-5,-1
6838304532,4,23,13,7,0,0,-7,2
6838320926,-11,1,6,1,3,-26,5,-2
6838320926,0,2,-10,-9,-3,7,1,-7
6838322396,13,-7,-2,-11,-9,1,-19,3
6838322396,-7,1,-9,12,0,-5,-7,-2
6838335229,51,70,9,1,7,8,20,7
6838335229,-40,16,-16,-15,-10,-11,-15,-21
6838341963,-29,-86,-18,-14,-17,-1,-34,-7
6838341963,-3,-4,9,-1,3,3,-16,13
6838357712,18,36,36,25,11,10,9,1
6838357712,-28,-57,-10,28,-17,0,-17,0
6838364485,33,121,0,-32,31,-5,11,3
6838364485,26,-30,-54,-32,-14,-7,-39,1
6838380853,-53,-91,-2,24,12,-10,-9,-10
6838380853,-9,24,37,-1,-20,4,2,-6
6838382354,-18,19,-22,-8,1,-2,-9,-6
6838382354,5,-25,69,58,11,14,30,7
6838395041,5,-42,-50,-72,-6,-6,-19,-4
6838395041,13,-40,23,1,3,-10,-7,-3
6838403447,-18,-53,-34,-6,6,-2,-11,-6
6838403447,-17,36,4,-8,-15,-12,2,-5
6838417726,15,-3,1,11,-14,-6,0,1
6838417726,17,7,8,16,7,5,8,-3
6838424427,3,23,10,12,4,16,14,5
6838424427,2,25,-17,-38,-15,-31,-8,-3
6838440887,-19,19,10,6,-13,5,11,-13
6838440887,34,44,-13,1,28,15,7,7
6838442403,-16,16,25,8,-25,-12,-1,-1
6838442403,-13,0,-4,15,18,-1,38,3
6838454522,2,-16,-8,-10,-17,-20,-3,-11
6838454522,12,-4,-4,-1,29,56,-6,12
6838463416,22,-33,9,12,-18,-17,8,5
6838463416,-19,-25,-6,-21,5,15,-8,-11
6838477707,2,13,7,30,-6,-13,22,4
6838477707,9,-2,-19,-25,13,-27,40,-16
6838484509,-8,-22,6,6,2,24,21,17
6838484509,-12,-12,-15,-2,10,2,4,-6
6838500918,7,9,11,19,-19,8,-7,0
6838500918,-11,3,6,-30,-11,-21,6,-3
6838502374,1,-7,-12,-13,0,-3,-15,-2
6838502374,-4,-3,9,1,2,-2,-9,-7
6838514538,3,3,-6,-14,3,2,-2,1
6838514538,-5,2,-4,14,-5,-4,-5,-2
6838523366,-13,-9,4,-12,-5,-1,-5,-5
6838523366,5,10,-4,2,-5,7,0,1
6838537717,-7,10,0,-6,2,-2,-3,-3
6838537717,-6,3,-22,-27,-14,-5,-11,-2
6838544532,1,9,9,0,7,13,8,-1
6838544532,1,-2,-2,-19,-15,-9,5,-3
6838560908,-4,-9,-1,-12,-1,-3,-9,-3
6838560908,1,13,-1,6,-13,-12,-4,0
6838562394,11,-14,18,18,22,7,8,0
6838562394,12,-5,-14,-20,-6,-1,-15,3
6838574496,-22,-2,-8,3,-1,4,-2,-2
6838574496,-2,-3,9,9,8,-11,-9,1
6838583415,-3,5,7,-3,-13,-15,-14,-6
6838583415,-5,0,-7,-6,-7,8,-5,-5
6838597748,8,2,-5,6,18,9,3,1
6838597748,-4,-8,20,30,-6,-9,1,3
6838604508,3,-3,-26,-20,-6,3,-18,0
6838604508,-3,-6,-5,0,-2,-17,8,-9
6838620858,6,8,4,-6,-1,21,5,8
6838620858,-10,-3,3,9,-2,-12,12,3
6838622369,12,11,8,10,10,38,3,5
6838622369,23,10,-5,-4,-3,-6,-12,3
6838634585,-15,-8,-8,-2,4,-11,7,-10
6838634585,-11,-17,-6,-6,-6,-18,29,3
6838643382,7,0,-4,4,0,9,-26,5
6838643382,-7,13,4,2,-7,5,7,-4
6838657689,15,0,-3,-1,0,-16,-12,2
6838657689,-6,-5,-10,-4,4,10,19,-9
6838664531,6,0,-6,0,-5,-14,-36,3
6838664531,-2,-2,7,9,1,1,-3,4
6838680892,-4,-2,-4,-8,-1,-10,-18,-8
6838680892,1,13,-3,-8,-3,7,2,0
6838682402,-10,-1,1,9,2,0,10,-4
6838682402,4,18,12,1,-6,-7,-2,0
6838694522,-10,-28,-8,-5,4,0,-10,4
6838694522,19,13,-6,-8,-4,7,-26,0
6838703445,-8,-4,5,-1,-10,-17,17,-3
6838703445,-25,-39,0,18,11,-1,-8,-3
6838718458,0,18,-24,-22,4,15,17,-2
6838718458,5,-22,15,15,2,5,-11,6
6838724443,-5,-32,-39,-34,-8,-10,3,-9
6838724443,8,53,28,30,-4,-3,5,6
6838740182,-9,-78,-17,-40,-11,-5,-10,-6
6838740182,-4,-4,6,2,-10,-6,-16,-3
6838741047,25,97,21,44,17,3,13,5
6838741047,-24,4,2,9,4,8,-3,-6
6838762686,-3,42,8,21,-2,0,5,-2
6838762686,-13,-7,-25,-17,-1,-9,-12,0
6838763367,15,-23,14,-16,-10,-3,6,0
6838763367,-9,38,-4,-4,-21,-17,-13,-5
6838778391,17,14,-2,-3,8,8,6,4
6838778391,-10,-12,-4,34,13,8,3,-2
6838784530,8,-12,-18,-11,-2,-3,0,-2
6838784530,1,10,-16,-32,0,4,7,5
6838800156,-3,-16,15,-7,-15,-9,-12,-1
6838800156,-4,7,-1,14,-9,-4,-10,-11
6838800956,4,1,-12,-16,5,-5,12,-2
6838800956,-14,-28,-2,-6,-6,3,-17,-7
6838823382,10,34,12,28,10,-10,23,12
6838823382,-29,-13,-20,-18,3,9,-16,-3
6838824065,6,14,15,-2,-16,-8,4,-4
6838824065,2,-11,5,8,17,24,18,2
6838838395,16,9,4,6,-13,-21,-22,-4
6838838395,6,6,6,-10,8,28,41,8
6838844508,-34,-25,-3,-3,-12,-15,-10,-8
6838844508,17,-11,-6,4,2,-4,8,5
6838860156,-3,3,-4,6,14,1,-8,-5
6838860156,22,26,9,-4,-4,-15,-30,2
6838860853,-32,-6,-13,-10,-15,-5,-18,-8
6838860853,19,12,-5,-2,3,0,12,2
6838882688,0,34,12,7,-5,-2,-3,-3
6838882688,-11,-27,5,-12,0,0,-9,-5
6838883310,-4,-18,1,21,25,5,4,-1
6838883310,7,-5,-3,-7,-5,-9,-22,-9
6838898349,4,-20,-1,9,-1,-4,30,10
6838898349,19,-6,6,-10,0,1,5,7
6838904466,3,-11,-12,8,16,10,3,1
6838904466,-4,-25,7,1,2,-9,12,-2
6838920082,-10,-4,15,6,-7,8,-10,-5
6838920082,17,19,4,33,23,1,7,5
6838920858,-6,-9,-13,-44,-15,-4,-19,3
6838920858,0,-6,0,22,3,-3,-12,0
6838942633,3,2,-6,-14,-7,8,31,0
6838942633,-12,1,-9,-13,-20,-23,-45,-11
6838943342,7,10,9,9,3,10,-43,8
6838943342,-4,-9,-13,-12,-11,-11,-6,-5
6838958354,-21,-22,-14,-15,-8,-23,4,-5
6838958354,7,6,-8,0,0,24,9,-3
6838964564,2,3,6,9,-4,-9,14,-3
6838964564,-4,2,3,-10,-3,14,-2,-1
6838980142,-11,-7,-12,-6,2,-8,4,-5
6838980142,5,11,4,-7,0,-6,-6,2
6838980849,0,3,7,10,-5,0,17,-7
6838980849,-4,-3,2,-4,3,13,-9,5
6839002598,-5,-5,-2,-4,2,-2,-2,-9
6839002598,4,-13,-7,-3,3,-3,42,5
6839003435,-9,3,11,5,0,3,9,4
6839003435,3,-11,-16,-5,0,2,15,1
6839018412,-10,1,-3,-1,2,-7,-12,-11
6839018412,-1,-10,-3,-4,-7,-3,-6,2
6839024451,8,2,-7,5,0,-20,-24,6
6839024451,4,4,2,-8,-6,-4,20,2
6839039482,-2,-8,1,-1,-3,-3,-33,-9
6839039482,-1,-5,-5,-4,-7,5,-16,-6
6839047041,2,-3,4,4,3,1,59,-2
6839047041,-1,-13,-8,-9,-7,8,-55,-3
6839062607,-10,-4,4,-1,-1,-2,-13,4
6839062607,1,4,1,1,-1,4,4,-4
6839063339,-17,10,5,5,-1,2,-2,-3
6839063339,7,0,-9,-20,-4,-12,9,-7
6839078343,1,2,7,21,3,4,13,-6
6839078343,-20,-47,-26,0,3,2,0,6
6839084484,3,17,8,-2,-4,-6,6,1
6839084484,6,20,0,-15,-7,1,-1,1
6839099493,-8,-34,-6,-28,8,3,-13,-9
6839099493,18,-58,-29,-15,-13,-8,10,2
6839106983,-7,-8,-8,-7,-4,4,-21,-3
6839106983,-22,42,6,7,-10,-12,-4,-8
6839122626,5,15,5,44,11,18,1,8
6839122626,11,99,38,34,4,-6,-5,-2
6839123385,-11,-43,-12,0,19,3,4,-5
6839123385,23,-12,-1,3,-6,-3,4,11
6839138376,-17,35,13,-17,-2,7,12,-4
6839138376,8,41,-34,-40,-4,-1,-7,6
6839144329,29,5,64,81,-11,-5,-7,-4
6839144329,-24,-45,-52,-74,3,-3,4,-4
6839159524,16,7,8,0,-11,-2,-10,8
6839159524,11,-8,39,-15,1,-3,3,7
6839166851,-22,46,2,23,3,4,10,-3
6839166851,-14,-65,6,23,8,3,-16,-5
6839182617,14,18,-6,-18,-8,-4,-9,-5
6839182617,1,58,4,-19,-27,-23,-2,-2
6839183414,0,-12,-17,-39,-9,-7,0,-2
6839183414,11,39,19,30,3,-1,34,-1
6839198389,1,-15,-13,7,20,4,-22,9
6839198389,-7,1,3,19,27,11,29,-4
6839204485,11,9,-9,-19,-16,-16,-4,2
6839204485,-12,-20,-12,-3,32,5,21,-6
6839219538,-3,0,5,-1,-44,-27,-5,-10
6839219538,-5,-19,7,15,8,24,13,4
6839227088,-3,-10,-24,-17,-11,-16,-39,-7
6839227088,0,0,5,29,6,-3,29,5
6839242605,10,-11,-5,-6,23,8,28,7
6839242605,-11,-10,4,-10,-7,-5,-3,5
6839243378,3,-26,-19,-21,-9,2,3,-6
6839243378,-7,-12,10,7,-16,-15,-33,-3
6839258381,-6,-1,-4,-19,-6,0,-7,1
6839258381,-9,-34,-9,19,-14,-2,-3,-18
6839264513,-3,-11,-4,-18,21,-4,4,0
6839264513,0,-4,-6,-9,-5,1,-8,0
6839279515,7,-8,10,24,4,21,18,8
6839279515,1,-11,-1,8,2,-5,-27,-4
6839287067,5,-4,-22,-6,-3,-5,11,2
6839287067,4,24,-3,-26,3,7,-10,4
6839302580,-1,7,-2,12,3,5,1,1
6839302580,-7,14,9,-1,-25,-13,-5,-4
6839303331,10,17,-35,-6,30,16,-1,3
6839303331,-7,-6,-9,3,-10,-1,1,-5
6839318366,-3,0,8,18,-7,-15,-9,-1
6839318366,-9,-10,-12,-12,5,0,-3,-5
6839324514,-19,-30,12,20,0,3,2,-6
6839324514,5,-10,-5,1,-9,-3,-12,4
6839339485,6,-16,2,-17,2,-3,1,1
6839339485,-12,-4,-7,-7,-3,-14,-2,-6
6839346881,2,-6,7,-6,-9,3,-9,3
6839346881,2,3,9,1,-6,-5,-4,-3
6839362574,-5,4,-5,-4,10,11,7,2
6839362574,2,-13,-7,0,4,-7,1,-4
6839363341,3,-1,13,0,-1,3,20,10
6839363341,7,-2,-5,2,-3,-5,-4,-3
6839378343,6,16,0,-2,-7,-3,-16,-2
6839378343,-9,-17,1,-3,6,2,12,-2
6839384465,-6,8,11,8,-3,-2,-10,0
6839384465,6,-1,4,1,-3,-6,-10,-3
6839399479,3,-2,-8,-8,-3,1,29,4
6839399479,-13,-4,-2,3,6,14,-3,-3
6839406978,-1,-5,-1,-5,-10,-19,-54,-5
6839406978,-4,18,4,1,2,3,32,-8
6839422664,16,7,-5,-5,0,5,6,5
6839422664,10,7,6,2,0,9,1,5
6839423342,-14,-6,-2,0,2,7,22,-5
6839423342,-3,-2,-4,-1,-1,2,-24,2
6839438339,-3,-1,2,4,3,-1,4,-4
6839438339,7,7,3,-2,-3,-1,-4,3
6839444434,8,-2,-6,-8,-4,-3,4,-4
6839444434,2,16,16,16,1,-1,-6,4
6839459478,-15,-25,-20,-19,-6,-1,-10,-7
6839459478,2,-5,-6,-4,-1,-10,-11,-1
6839466996,-2,20,5,-15,-6,8,7,-1
6839466996,-1,7,8,18,3,4,6,3
6839482647,14,14,-6,-8,-8,-2,-13,0
6839482647,-11,-1,4,-6,14,-3,3,-1
6839483346,-27,-3,12,17,-13,2,3,-5
6839483346,13,-20,-39,-36,-4,-1,-4,2
6839498354,-20,50,10,5,-11,-9,-8,-7
6839498354,17,-32,4,1,6,-1,-6,6
6839504478,5,29,4,1,4,10,6,-2
6839504478,3,3,23,46,15,0,1,5
6839519533,9,14,-5,8,-1,2,0,3
6839519533,-17,-52,-32,-38,-8,-11,-9,-3
6839526865,6,42,3,4,-11,-11,-9,-7
6839526865,4,-9,10,2,-4,11,3,-2
6839542596,13,42,16,1,12,7,-1,3
6839542596,-39,-61,-31,24,3,0,1,-6
6839543353,15,8,-4,-1,1,0,6,5
6839543353,-19,0,-2,-16,-5,-11,-6,-4
6839558377,4,-39,9,7,-10,0,-12,-8
6839558377,21,14,3,-2,2,-8,-5,5
6839564486,-15,-16,-4,-4,2,-7,-5,2
6839564486,-6,31,11,-10,-24,14,7,-7
6839579464,-1,-39,-9,5,34,7,-43,9
6839579464,10,31,12,-5,-15,-5,19,-6
6839587053,20,-8,-9,5,10,-30,18,5
6839587053,-20,-2,14,8,9,42,13,2
6839602546,-14,-14,-12,-31,-27,-20,-35,-13
6839602546,-9,30,1,28,46,7,7,-4
6839603366,18,1,1,-30,-48,13,-4,15
6839603366,4,11,3,20,13,-22,43,2
6839618337,-2,14,-26,-27,-5,5,28,5
6839618337,16,47,17,10,-17,-8,-4,1
6839624461,-16,3,-5,-2,17,5,-7,-9
6839624461,0,-27,-12,-13,-12,-19,-15,-3
6839639272,-14,-20,10,-7,-10,3,12,-5
6839639272,-1,-9,0,15,8,7,-9,0
6839646766,-1,-30,0,0,22,17,12,-1
6839646766,-9,-24,5,3,-9,-4,-16,-6
6839662599,2,-12,0,-14,6,-19,9,2
6839662599,-1,-11,-7,-17,-50,-14,-7,-1
6839663283,-2,-21,-8,-24,9,8,-5,-3
6839663283,0,-16,-17,-2,10,6,-8,0
6839678335,-10,-31,-4,-3,-10,-8,1,-3
6839678335,-3,-4,0,19,17,11,-1,-1
6839684433,0,-8,16,25,-9,5,-4,-1
6839684433,7,13,-5,-7,-7,-13,-4,2
6839699381,-7,1,-19,-13,11,-7,2,-7
6839699381,-2,-1,-2,-30,-9,5,-13,-1
6839706935,-6,-9,0,14,-1,-18,4,0
6839706935,-1,1,1,-1,-1,0,-12,-5
6839724025,4,6,14,36,1,3,-1,0
6839724025,5,15,9,6,-1,-7,-2,2
6839724903,-2,11,3,-12,6,3,1,-3
6839724903,-4,-8,-3,2,2,10,-7,-1
6839738338,-1,-3,-8,0,4,2,10,-4
6839738338,7,-3,4,-13,-4,-10,11,9
6839744418,12,9,-1,10,0,15,-7,-1
6839744418,0,2,-7,-6,2,-14,14,1
6839759458,-13,-19,0,6,-1,-8,-4,3
6839759458,1,6,-5,4,3,15,24,-12
6839766930,-25,-36,-12,-3,-12,-47,-35,-9
6839766930,19,11,-4,-6,6,18,33,21
6839782573,5,-5,-1,-1,7,18,43,-1
6839782573,2,18,13,3,-8,-17,-33,19
6839783331,-14,-6,-10,-6,1,19,-24,-64
6839783331,1,-10,-5,-9,-1,-9,-13,-11
6839798327,26,10,10,12,-3,-4,-8,2
6839798327,-30,-6,-6,-2,2,5,-21,-8
6839804455,4,-10,-2,-1,-5,2,8,8
6839804455,-7,15,1,-7,-5,-15,-7,4
6839819482,-16,-27,0,7,-1,-11,-3,-7
6839819482,11,0,-4,-3,-1,23,-11,2
6839827001,-3,-5,5,2,6,0,11,10
6839827001,-10,2,-10,-4,-6,-3,-14,-10
6839842540,-15,7,4,2,-1,-1,-10,1
6839842540,19,-1,5,2,-6,-5,13,9
6839843325,12,51,1,-12,-2,1,11,6
6839843325,0,41,8,6,6,5,8,4
6839856991,11,58,16,18,-4,-1,-7,2
6839856991,-24,-9,-40,-13,-9,-10,-9,-21
6839864440,6,49,24,14,14,16,18,20
6839864440,1,-21,-4,35,2,-9,-18,2
6839879437,7,53,-14,-38,-9,-7,-13,-8
6839879437,-5,-17,37,-33,12,4,8,-2
6839887058,-1,-93,-52,18,-34,-13,-1,5
6839887058,-14,77,62,25,31,-1,-3,-7
6839902557,0,35,-14,-27,-9,17,4,3
6839902557,-26,-37,-32,51,-14,-16,-9,-20
6839903366,-4,64,-21,-62,20,-1,19,1
6839903366,3,-12,56,-10,-17,9,-32,1
6839916880,17,-21,-8,59,4,-14,2,-1
6839916880,8,4,-10,-50,-15,6,-2,3
6839924465,9,-1,19,27,26,4,-4,7
6839924465,-15,6,-5,-12,-34,-25,2,-3
6839939491,17,-14,28,11,10,16,9,16
6839939491,-4,-22,-3,-8,6,-5,9,-1
6839946990,-2,-5,0,-19,-29,-19,-1,-6
6839946990,14,0,-24,-2,29,26,27,4
6839961964,-18,2,12,14,7,-3,-11,-3
6839961964,1,10,-7,-22,-9,0,12,0
6839970161,2,11,3,-17,-28,-11,-15,-4
6839970161,-9,-28,-13,52,16,0,1,-6
6839976985,-5,-17,-12,-21,11,-6,-4,-2
6839976985,9,13,-4,21,23,21,10,2
6839984487,9,-21,12,-10,18,5,8,10
6839984487,-6,-46,-31,-21,-19,-13,-15,-6
6839999432,-3,-17,-10,-52,-6,0,2,-1
6839999432,12,2,60,71,23,-8,-3,8
6840006811,-18,-34,-31,2,12,25,-6,-4
6840006811,6,-4,23,-3,1,-2,3,-2
6840021851,-6,-22,-38,8,-15,-7,-3,-4
6840021851,-2,6,12,-9,-19,-10,-5,-4
6840030032,0,8,16,-10,-11,-11,-5,-1
6840030032,5,8,-38,-12,-24,-5,3,-1
6840036821,-11,-20,-14,-12,1,9,0,-3
6840036821,2,6,-21,-12,-9,-9,-7,0
6840044330,-6,-3,16,11,-4,-1,-1,-2
6840044330,4,1,-26,-18,9,2,-4,2
6840059330,-5,-5,8,-12,1,5,5,-1
6840059330,-2,7,-15,10,8,-1,-5,-2
6840066821,2,9,-6,-18,-22,-12,-7,1
6840066821,-2,-18,25,27,5,2,2,-3
6840081774,0,18,22,-30,3,12,0,0
6840081774,4,16,-34,-25,0,-5,0,0
6840089998,2,-7,8,48,21,-10,-5,-3
6840089998,14,5,1,-22,-30,11,-8,0
6840104919,-9,1,8,36,11,-11,2,1
6840104919,3,10,16,-13,-15,6,-2,-1
6840105742,-21,-6,-9,1,7,0,6,0
6840105742,-3,-8,-11,-37,0,-3,-13,-8
6840119275,5,-9,9,5,-11,-6,-3,-1
6840119275,0,4,-5,-1,-2,4,4,1
6840126771,3,-14,8,5,-2,-6,-13,-4
6840126771,2,5,-9,-9,18,5,10,4
6840141816,0,-7,-3,18,-8,1,-1,0
6840141816,0,7,10,4,-1,3,1,1
6840150024,10,20,13,2,7,16,9,6
6840150024,-6,0,-13,-11,-4,-14,-5,-3
6840164979,-1,-5,-13,15,24,9,4,0
6840164979,-4,6,-3,-15,-35,-23,-1,-6
6840165758,-4,3,0,5,8,33,9,-3
6840165758,0,-13,3,3,19,-3,10,4
6840179299,-3,1,2,-4,-9,-2,-10,0
6840179299,-2,3,7,-6,11,0,6,0
6840186795,5,-1,-4,-17,-17,-6,0,2
6840186795,-6,1,-14,4,-8,1,-8,-5
6840201792,1,7,1,-2,0,1,-5,-4
6840201792,0,-3,9,2,7,-7,-4,-3
6840209983,1,2,-2,4,-10,3,-2,0
6840209983,-1,1,-2,-2,12,6,6,1
6840224958,-3,-1,11,2,-5,0,-4,-1
6840224958,0,-8,-12,-2,6,-7,-6,-2
6840225763,0,-1,-5,-1,-11,-9,-3,0
6840225763,-2,-4,-2,-6,4,-2,2,-1
6840239291,0,-7,9,3,-5,7,5,-1
6840239291,1,-3,-2,2,23,3,-5,-1
6840246781,-2,-4,-2,7,-10,-8,2,2
6840246781,0,-2,-6,-6,0,0,-6,-5
6840261846,4,-4,2,-2,-3,-2,0,-2
6840261846,-10,-7,2,1,-7,7,-1,-3
6840270032,2,-7,-4,-3,3,0,-4,-2
6840270032,2,-1,0,-14,-15,-23,-6,4
6840285087,-4,-2,-11,2,5,7,9,-1
6840285087,1,-3,3,-5,-4,11,-3,0
6840285898,-2,-2,2,-3,-7,-16,-5,-4
6840285898,-3,-1,-4,-4,-9,-7,-9,0
6840299486,3,0,-4,2,-7,-1,-1,0
6840299486,2,-2,-1,12,15,19,8,3
6840306968,-4,-1,3,-1,4,-6,1,-2
6840306968,-4,1,3,-1,-4,-15,-8,-3
6840321980,-2,3,0,-4,-6,5,1,-1
6840321980,-7,-5,-8,-13,-8,-8,-4,-6
6840330134,4,-2,-2,4,8,12,3,0
6840330134,0,-1,1,0,9,3,0,0
6840345138,-1,-2,-6,-10,-9,-13,-4,0
6840345138,4,7,0,1,-13,-4,-4,-1
6840345832,-3,-22,2,14,12,5,1,-1
6840345832,-3,0,-3,2,4,2,6,0
6840367636,-4,14,1,-2,-10,-5,-3,-2
6840367636,2,-19,7,-17,-2,-13,5,0
6840368283,-5,-4,-17,-15,-2,16,-7,0
6840368283,0,13,0,9,-8,-5,-4,-3
6840382026,-1,-13,4,0,12,6,1,1
6840382026,0,-7,0,4,-7,1,0,0
6840390078,1,14,5,3,-2,-15,-5,-4
6840390078,0,1,3,0,2,5,5,-3
6840405126,-6,-16,-8,-6,0,-5,3,-2
6840405126,-2,6,-1,2,-7,2,-15,-2
6840405795,0,11,0,2,9,-4,-1,1
6840405795,1,-11,-4,-5,9,-1,-2,0
6840419494,0,1,-1,-1,-15,-7,-2,1
6840419494,0,8,-3,5,2,18,2,-1
6840426881,-1,-4,3,3,-4,-3,3,0
6840426881,3,-5,5,7,-4,-11,-4,1
6840441937,-3,-3,-14,-12,3,-8,-2,-2
6840441937,-1,3,0,4,4,9,1,2
6840450100,0,-3,-5,-4,-3,-6,-4,-2
6840450100,-6,-6,0,-13,-12,1,1,-3
6840465133,-1,4,6,10,0,7,-2,-2
6840465133,1,-7,1,7,10,-13,-1,0
6840465807,-1,-1,1,-4,-4,0,2,-1
6840465807,-2,-5,-13,-11,-9,12,-3,-2
6840479449,2,12,-1,0,6,-7,-1,0
6840479449,2,-6,-2,2,-4,-18,3,0
6840486926,-3,-6,-1,-1,6,23,-1,-3
6840486926,-2,-1,4,15,-2,7,5,1
6840501884,-1,12,-1,-6,-8,-24,-6,-4
6840501884,-2,-2,-3,-5,5,15,-2,3
6840510160,4,-11,3,1,-7,-15,1,2
6840510160,-4,8,4,7,-6,8,3,-2
6840525087,-6,-13,-6,-6,13,7,-2,-4
6840525087,-4,-12,-2,2,-8,-13,-5,-4
6840525772,-2,7,-5,-10,1,3,3,-1
6840525772,5,0,-4,7,0,4,1,1
6840539459,3,-7,1,2,3,-2,-4,0
6840539459,-7,1,1,3,-12,-4,2,-3
6840546918,-4,7,0,-7,-1,-1,3,1
6840546918,0,-3,0,-2,4,-1,0,1
6840561934,-3,-8,2,-1,-9,-7,-5,-1
6840561934,1,7,-8,6,4,4,0,-1
6840577663,3,1,6,-1,-1,-8,-7,0
6840577663,-2,-8,-8,-13,-1,4,2,-5
6840585078,-2,2,3,8,1,2,-1,0
6840585078,-1,2,-3,-4,-2,-10,-2,1
6840585785,-3,-6,-3,-5,-7,-1,-7,-3
6840585785,-1,1,3,3,1,-14,-2,-1
6840599462,-2,-1,3,16,13,18,2,-1
6840599462,1,-3,2,-3,18,2,4,1
