timestamp,emg1,emg2,emg3,emg4,emg5,emg6,emg7,emg8
11799879929,2,3,2,-1,-5,-4,-3,-1
11799879929,0,1,0,-3,-5,-3,-5,-1
11799880749,-1,0,-3,1,-1,1,-1,-3
11799880749,0,1,1,-3,-1,2,1,0
11799881508,3,-1,-1,-2,1,2,2,3
11799881508,2,2,4,6,0,-1,-1,-3
11799884936,-2,-4,-2,-2,-4,-3,-3,0
11799884936,-1,4,-1,-2,-5,-6,-4,-4
11799891374,-2,1,-1,0,7,3,2,-1
11799891374,-2,-1,-4,-3,-4,-2,-1,-4
11799900070,3,-7,1,2,0,-2,0,-1
11799900070,-5,-5,-3,-2,0,1,1,-1
11799907912,-1,-11,0,-1,-7,-2,-2,-2
11799907912,-1,-6,-3,-8,-2,-2,1,-2
11799921538,2,5,2,1,0,1,-1,-2
11799921538,-1,-3,1,-1,0,-3,-4,-2
11799932954,-1,6,1,7,2,1,0,-1
11799932954,-3,-5,-6,0,2,0,0,0
11799936537,-3,-1,2,-1,-1,-2,-3,-4
11799936537,0,0,-3,-6,-5,0,-1,2
11799951603,-2,-7,-4,-5,-1,-3,-3,-2
11799951603,-2,2,2,10,1,-3,-1,-1
11799999714,4,4,-2,-5,0,1,0,0
11799999714,5,0,1,8,0,2,-1,1
11800000652,-5,-7,3,1,1,-1,-2,-1
11800000652,-2,-5,-6,-2,6,0,0,0
11800001350,0,0,2,-2,-1,-3,-3,-2
11800001350,-1,-1,2,-2,-2,-2,-1,-1
11800004450,3,2,0,7,-5,-4,-2,0
11800004450,-4,0,1,2,5,3,1,-2
11800011321,-3,-5,0,7,2,0,-1,-1
11800011321,-4,-1,0,0,-2,0,-2,-2
11800018751,0,-1,-6,-15,2,0,-1,-1
11800018751,-1,-1,-1,-4,-12,-6,-3,-1
11800027769,0,1,-2,-3,0,-1,-2,-2
11800027769,-1,-1,-1,-6,-2,0,0,-2
11800041326,-3,-1,2,9,-4,0,-1,-2
11800041326,2,1,-2,2,7,3,-1,0
11800050350,-3,-1,3,3,0,1,-1,-1
11800050350,-3,-2,-2,10,-2,-2,-1,0
11800056257,0,0,1,-2,10,1,0,0
11800056257,-3,-4,-2,-7,-8,-2,-3,-3
11800071282,-2,-2,-3,-1,-5,-2,1,1
11800071282,0,1,1,0,4,1,1,-3
11800078683,-1,0,-4,-6,-6,0,0,-1
11800078683,1,2,-1,2,-5,-1,2,-2
11800087706,0,-3,-3,-5,-2,-3,0,-1
11800087706,-3,-1,-6,-12,-4,-1,-1,1
11800101386,-8,0,-1,6,-1,2,-2,-3
11800101386,5,-5,1,-1,0,-2,-3,0
11800110211,1,-3,0,0,-2,1,0,1
11800110211,0,1,-3,-4,-3,-3,0,-1
11800116385,-2,1,-2,-2,-1,-2,-2,-3
11800116385,-3,2,3,4,0,-2,-1,-3
11800131281,-1,-1,-5,-9,-1,-1,-4,-1
11800131281,-1,4,1,12,-1,-4,-2,-2
11800138849,0,-5,-1,-5,-5,0,1,0
11800138849,-9,-9,-4,-9,5,1,-2,-2
11800147769,-1,-1,2,5,0,-4,-1,-2
11800147769,0,0,0,-1,0,-1,1,-1
11800161277,1,1,0,-4,-5,-1,0,-2
11800161277,3,4,0,-3,-3,1,2,3
11800170261,2,4,-1,4,4,-2,-1,-2
11800170261,-5,-4,0,2,2,-1,-5,-4
11800176354,6,2,-2,-2,-8,-4,-4,1
11800176354,0,4,-2,0,13,4,3,2
11800191275,-5,-8,-4,-12,-2,2,0,-1
11800191275,-3,-2,2,4,-2,-2,0,-1
11800198713,-1,-2,1,0,1,2,0,-1
11800198713,-8,2,0,0,-6,-3,-2,-4
11800207787,6,12,1,5,-3,-2,-1,-2
11800207787,7,-3,-2,-6,-1,-1,0,1
11800221246,-5,-15,1,0,1,0,1,0
11800221246,-8,-10,-3,3,-6,-3,-4,-4
11800230222,-9,-4,0,-2,1,-1,-2,-6
11800230222,4,4,-2,-19,-5,0,-1,1
11800236260,1,2,-4,8,8,0,1,0
11800236260,3,0,0,0,-6,-3,-1,2
11800251262,-5,-2,0,6,0,-2,1,0
11800251262,0,1,0,-3,2,-1,-1,-1
11800258697,2,5,-2,-2,-3,0,-5,-1
11800258697,0,0,-3,-3,-6,0,5,-1
11800267668,0,2,-3,-5,-4,0,0,0
11800267668,-3,-7,-3,0,-1,0,-2,-1
11800290210,-5,-1,-1,0,-1,-3,-6,-3
11800290210,1,3,3,-1,-3,-4,-4,-2
11800291811,4,-8,-2,-1,1,1,-1,3
11800291811,0,0,-2,2,5,4,0,0
11800296235,0,1,0,-3,-3,-2,0,0
11800296235,2,4,1,2,1,-2,-3,0
11800311236,-4,4,2,0,-6,-4,0,-2
11800311236,-6,-7,-5,-1,2,0,-1,-2
11800318789,0,4,-1,-5,4,1,1,0
11800318789,2,-1,2,3,-2,-2,0,-2
11800327837,-5,-12,0,3,0,0,-2,-5
11800327837,6,2,0,2,-4,-2,0,0
11800341949,-2,1,-3,-6,-7,-4,0,0
11800341949,1,2,0,-6,-3,-4,-4,0
11800348739,-3,0,1,6,-6,-4,-2,-2
11800348739,-4,-3,-4,-16,3,0,0,0
11800356314,0,-3,1,6,2,1,2,-2
11800356314,-2,-1,1,4,3,2,0,-2
11800371270,2,2,-4,-1,-3,-1,0,1
11800371270,-2,2,-2,1,-1,-4,-2,0
11800378768,-1,-4,-2,1,-2,-3,-3,0
11800378768,-1,-1,-2,-6,-3,-1,-2,-1
11800387796,1,5,2,-12,1,0,-1,-3
11800387796,-1,-9,-2,6,-4,-1,-2,-2
11800401951,1,-3,-1,4,0,-2,1,1
11800401951,2,2,-2,-2,-1,-1,-1,-2
11800408771,1,-3,-5,-3,2,0,-1,-1
11800408771,-1,0,2,-9,-4,-3,-1,-2
11800416376,-6,0,1,-2,-6,-6,-2,-2
11800416376,1,-2,-3,-9,-7,-1,-3,1
11800431246,-2,1,1,8,4,3,1,2
11800431246,-5,-9,-5,-12,2,-2,1,0
11800438709,3,2,-3,0,0,1,-2,-2
11800438709,0,-2,-2,-10,0,-1,-2,1
11800447732,-1,2,-1,14,-2,-1,-4,-2
11800447732,-9,-2,8,10,-4,-2,-4,-5
11800462061,2,1,-1,1,7,4,1,2
11800462061,4,-3,-3,-4,0,0,1,2
11800468729,-1,-3,-3,-8,-7,-1,-2,2
11800468729,2,5,-2,4,3,-3,-1,0
11800476399,-2,0,2,6,-2,-2,-3,-3
11800476399,-4,-3,-1,-4,-3,-1,2,-2
11800491337,3,-2,-2,-6,-2,-2,-1,-1
11800491337,3,4,-1,0,-3,0,0,1
11800498841,-5,-6,-4,-3,2,2,1,-2
11800498841,2,-3,0,7,2,-1,1,0
11800507757,0,5,0,-6,-3,-4,-2,-2
11800507757,3,4,-2,5,-3,0,0,1
11800522025,-4,-8,-3,-2,-4,-4,-1,-3
11800522025,-7,-2,0,5,-1,-2,-3,-3
11800528844,-5,-2,-1,-6,2,4,1,-2
11800528844,6,2,1,4,-2,-2,-1,-2
11800536375,1,6,1,-3,-4,-3,0,1
11800536375,-5,-9,-5,-7,2,0,-2,0
11800551299,-5,-11,-1,-4,-4,-3,-3,-4
11800551299,-4,-1,-3,2,-3,2,-2,-1
11800558832,2,1,0,1,2,-2,-2,-1
11800558832,-1,4,6,5,-4,0,0,-3
11800567761,1,-1,-9,-15,-1,-2,0,0
11800567761,-2,-4,0,-15,-9,-3,1,0
11800582005,1,0,0,5,2,-2,0,0
11800582005,0,0,-2,0,-8,-3,-1,-1
11800588819,1,0,-1,11,2,-2,-2,0
11800588819,-3,-1,1,-4,-1,-1,-1,1
11800604411,-3,3,-1,-6,-2,0,-1,-2
11800604411,-3,-1,3,14,6,4,1,0
11800611209,0,-1,1,2,-6,0,-4,-2
11800611209,2,1,-5,-3,10,2,-1,0
11800618671,0,-2,-2,-10,-2,-2,-3,-2
11800618671,-3,-4,0,6,6,4,0,-3
11800627691,-1,-2,-1,-2,-5,-5,-2,-1
11800627691,3,2,4,12,0,-2,-2,-1
11800642010,-2,-5,-3,-11,3,6,0,-2
11800642010,1,-1,-1,-4,0,-4,-2,-1
11800648752,0,2,3,2,0,2,0,1
11800648752,-4,-2,-1,3,1,3,0,-2
11800664511,-3,-2,-3,-2,-3,-2,-2,-1
11800664511,9,5,-4,-4,-3,-3,-3,-1
11800671311,2,0,4,0,-2,-4,0,0
11800671311,0,1,-1,2,3,-4,-3,-2
11800678758,-3,-7,-5,-9,-5,3,1,1
11800678758,-2,-2,-1,6,3,-1,-1,-2
11800687850,-2,0,0,-2,5,0,2,-3
11800687850,-5,1,-4,-2,-5,0,-3,1
11800701870,3,-6,3,14,-8,-6,-3,-1
11800701870,-5,-3,-2,-11,3,2,-1,-1
11800708784,1,-1,0,1,2,2,1,-2
11800708784,-1,0,1,-5,-5,-5,1,-4
11800724439,3,1,0,2,-3,-2,-2,0
11800724439,3,-4,1,9,-1,0,0,3
11800731332,-6,-1,-4,-11,-4,-3,-3,0
11800731332,-3,-2,0,-1,7,-1,0,-1
11800738729,2,2,-2,-4,-1,-2,-2,-1
11800738729,-1,1,-1,3,1,1,2,-1
11800747786,-1,0,-1,-3,0,3,1,-1
11800747786,-8,-3,-2,1,-8,-4,-4,-1
11800762002,2,-5,-2,-2,3,0,-1,0
11800762002,2,1,-2,-5,-1,0,-2,-1
11800768789,2,-2,0,3,3,-1,-1,1
11800768789,-1,-3,-2,-7,-4,0,0,-2
11800784388,-4,2,-1,-3,0,0,-1,-2
11800784388,0,1,-3,-3,-6,0,-1,-2
11800791219,0,7,-3,-1,-2,-4,-4,1
11800791219,0,-9,-4,2,-3,-1,0,-1
11800798692,-1,0,-1,3,-1,-1,1,1
11800798692,-7,-5,-3,-13,-6,-4,-4,-4
11800807650,-3,-2,-1,5,8,2,3,0
11800807650,2,0,1,-1,-1,0,0,-2
11800821991,0,3,-1,-2,-5,-5,-1,1
11800821991,1,-1,1,1,-1,-1,0,0
11800828694,-6,-1,-1,2,0,-1,-1,-2
11800828694,-4,1,0,0,1,-2,-5,-3
11800844545,7,-1,0,-3,-5,-3,-4,0
11800844545,-2,1,1,-2,-5,-4,-6,0
11800851271,-2,-6,-4,4,5,7,15,-1
11800851271,2,1,-2,0,1,-4,-3,1
11800858808,-2,5,0,2,5,6,-2,-1
11800858808,-9,-6,-2,0,0,-5,-5,-2
11800867711,7,0,1,-8,-9,-3,-7,-1
11800867711,5,1,-3,4,0,1,2,2
11800881896,-4,-11,-4,-4,-1,-5,-3,-3
11800881896,-2,2,-5,3,1,0,0,-1
11800888894,-3,0,1,-6,-1,0,1,1
11800888894,-1,1,1,-3,-5,-14,-11,-1
11800904537,0,6,4,1,-1,6,-1,-4
11800904537,-1,0,0,-1,1,4,2,-1
11800911375,2,-3,-5,2,-5,-9,-7,-1
11800911375,-1,-4,-3,-3,0,7,7,-1
11800918862,-4,-1,-2,0,3,-2,-3,0
11800918862,5,2,-2,-3,-1,-3,0,-1
11800933852,-5,-8,-1,-1,1,-1,-1,0
11800933852,-3,-4,-3,0,1,-3,-9,-4
11800942052,0,-4,3,2,0,-1,15,0
11800942052,1,3,3,-1,-3,-2,1,1
11800948717,2,4,1,2,-1,-4,-4,-2
11800948717,-2,-5,1,1,0,3,2,-2
11800964394,2,3,-5,-2,-2,-2,-4,0
11800964394,-6,-8,-1,3,-3,-2,-2,-2
11800971150,-8,-6,0,-3,-6,-3,-3,0
11800971150,3,2,2,-8,-2,2,2,0
11800986817,-2,2,-21,-3,2,-1,-1,0
11800986817,7,7,-22,-5,2,-2,-4,-2
11800993718,-1,2,47,2,-3,2,0,6
11800993718,-3,5,17,9,-2,1,5,-4
11801001347,-8,-10,-19,-4,-3,-3,-8,-2
11801001347,-1,-1,9,-4,-4,-7,0,-1
11801010220,11,2,-13,2,1,4,-3,-3
11801010220,4,4,-2,-2,5,4,0,3
11801024458,-3,5,12,2,-4,-4,-5,-2
11801024458,-5,4,-14,0,3,3,6,2
11801031337,-10,-7,-9,-2,1,-2,-4,-4
11801031337,-7,-10,-4,4,-5,-7,16,-5
11801047016,3,6,-12,-14,-2,-3,-22,0
11801047016,4,-7,-1,-9,-4,2,-8,-5
11801053811,8,6,9,3,4,3,-1,24
11801053811,13,10,-3,4,-3,-6,4,-2
11801070168,-10,-11,11,-1,0,1,-18,-12
11801070168,4,2,14,8,6,1,7,2
11801071752,-9,-14,-43,3,0,-6,-8,-8
11801071752,-13,-14,-3,-4,-1,8,-7,0
11801084371,4,6,24,1,-7,-5,30,3
11801084371,-3,0,-7,0,-1,-1,-1,3
11801091350,14,5,1,8,-1,-3,-7,-11
11801091350,-9,-10,27,-18,-1,-1,-6,-2
11801106986,3,-4,11,4,3,2,2,-2
11801106986,1,-4,-2,-3,-4,-5,6,8
11801113643,-10,0,-10,-2,1,8,-3,-4
11801113643,-2,-2,-19,-5,-2,-5,6,-4
11801130065,-11,-4,-9,2,4,2,-18,1
11801130065,1,-1,5,-7,0,6,8,-7
11801131650,-3,-16,-10,-6,-3,-6,-11,-8
11801131650,3,13,34,26,-2,-1,6,-1
11801144385,-7,6,5,25,4,-3,5,-8
11801144385,6,9,-23,-58,-12,-5,-19,-2
11801151174,-8,5,1,-19,-1,1,-4,0
11801151174,4,-15,-23,-6,2,2,2,10
11801166882,2,-10,-8,2,0,1,11,-6
11801166882,6,8,3,4,-2,-1,-12,-2
11801173700,3,-8,2,-2,-1,-4,-6,3
11801173700,-19,2,-2,0,-2,-5,-1,-5
11801190159,1,3,-12,-6,-1,0,18,5
11801190159,-4,-14,3,5,-4,-7,-14,-3
11801191692,-1,5,5,0,0,1,18,7
11801191692,4,-7,9,6,2,2,-10,-1
11801203733,11,17,-12,3,0,7,-1,-7
11801203733,-10,-12,-25,-3,1,-2,9,53
11801212745,-13,-15,-4,0,-4,-8,-5,-76
11801212745,-1,7,21,11,-1,-2,-3,4
11801226927,-12,7,27,7,-2,-3,-3,-8
11801226927,13,1,13,6,0,4,8,12
11801233661,9,5,-17,23,-4,-3,7,14
11801233661,-2,5,-17,-14,-4,-2,-10,-1
11801250137,2,-1,0,-2,3,-1,-10,-4
11801250137,-2,-17,-11,5,1,-8,16,-18
11801251776,-14,-3,-5,-6,7,11,2,9
11801251776,25,2,-7,-2,5,0,-17,12
11801263687,-15,1,-29,-8,-2,-1,-2,7
11801263687,-4,7,-3,-4,3,4,11,12
11801272751,16,-14,61,34,-16,-18,-28,-5
11801272751,-1,-7,-12,-34,-11,-1,-6,-3
11801286943,-3,-13,1,11,3,0,6,9
11801286943,-6,17,-17,-4,-3,2,0,-20
11801293742,3,10,11,-1,0,0,-2,6
11801293742,-28,-28,-10,-8,-4,-4,-5,-8
11801310109,16,-6,-1,-7,-7,-5,-4,0
11801310109,9,11,19,19,5,3,0,-8
11801311618,6,22,7,-14,1,3,6,13
11801311618,-6,-19,-46,-3,8,5,8,-3
11801323680,-9,7,34,-10,-4,-1,-3,-3
11801323680,2,1,14,-10,-5,-3,-2,-8
11801332655,22,47,19,24,0,2,14,20
11801332655,-37,-58,-107,-81,16,5,1,-16
11801346914,-1,15,91,47,-8,-10,-2,-1
11801346914,-12,-5,30,57,-4,-11,-12,-11
11801353789,-4,-8,-9,-36,1,3,2,-2
11801353789,17,28,12,28,-8,3,10,3
11801370028,2,-27,-57,-81,32,13,-2,4
11801370028,-12,-26,1,-7,-11,-2,-3,-8
11801371763,-13,-13,-24,11,9,-1,5,-4
11801371763,14,28,21,41,-2,-3,-2,2
11801383806,11,10,-12,-1,-17,-8,1,6
11801383806,-13,5,2,23,9,0,-7,-4
11801392646,-9,-25,-24,-45,-9,-2,3,-3
11801392646,4,11,18,-9,-6,-3,0,1
11801406830,-9,-8,3,17,-7,-5,-18,-8
11801406830,1,-3,-9,-8,-1,0,-3,-7
11801413692,11,13,0,1,-1,3,21,16
11801413692,0,0,29,24,4,-3,-2,-4
11801429986,3,2,-22,-5,-2,-1,2,1
11801429986,-3,-2,3,2,3,-1,2,-6
11801431600,-13,-10,-12,-8,-3,1,-5,-3
11801431600,7,10,21,3,-2,-1,-6,-1
11801443643,1,-9,-7,1,-8,-3,17,0
11801443643,4,6,-2,-16,-6,-3,-15,6
11801452703,-11,-21,27,2,-1,-4,-1,-7
11801452703,-3,5,-11,23,-3,-3,-3,0
11801466917,-2,6,-3,-9,2,4,2,-3
11801466917,-4,-12,-38,-22,1,5,2,-3
11801473677,4,18,22,11,3,1,-3,-1
11801473677,1,-1,10,6,0,0,0,-2
11801490024,-6,-14,24,1,-2,-4,-3,-2
11801490024,0,3,3,-1,0,-2,-2,-2
11801491647,0,9,-14,-3,-3,-2,-2,2
11801491647,-1,-1,-16,-31,-3,0,-3,-1
11801503679,1,-1,-18,10,-5,0,-1,2
11801503679,-6,-8,-2,15,2,-1,-2,-5
11801512678,-7,-3,35,-8,-8,-6,-5,-7
11801512678,5,6,12,7,4,0,9,0
11801526851,4,0,-4,-7,2,3,-1,4
11801526851,1,1,-14,12,4,0,1,1
11801533724,-1,-3,-22,-14,3,1,0,-1
11801533724,-11,2,4,-20,-7,-1,-6,-6
11801550016,-3,-10,-28,-8,-6,-3,-2,-5
11801550016,-1,0,14,19,0,-4,-6,-1
11801551652,-9,-6,-14,-9,-1,0,-2,-2
11801551652,8,4,10,1,-2,1,4,8
11801563676,-1,0,-4,-3,-1,-4,-1,-2
11801563676,0,0,0,-18,-3,1,1,2
11801572691,4,19,-1,5,-8,-2,0,-3
11801572691,-7,-22,-10,7,1,0,-1,-2
11801586995,-1,-6,-2,-1,-7,-2,-5,0
11801586995,-2,1,3,7,10,4,9,1
11801593752,0,6,-10,0,-1,-2,-3,0
11801593752,1,-1,-16,-20,-6,-1,-2,-3
11801610115,0,-3,15,5,1,1,-4,0
11801610115,0,-1,15,5,0,-1,-1,-2
11801611647,-9,-15,-18,-11,-2,-1,0,-4
11801611647,6,12,23,4,-4,-2,-3,2
11801623688,0,-2,-40,-7,-5,-4,0,-3
11801623688,6,2,-6,-17,-3,0,4,0
11801632800,-9,-11,-2,14,7,0,-6,0
11801632800,-5,5,6,9,-4,-5,-5,-3
11801646937,-3,-1,3,6,-7,-2,-6,-7
11801646937,3,5,7,-13,10,2,7,3
11801653715,0,-10,-10,-2,-5,-4,-4,-5
11801653715,7,7,0,-9,4,-1,-9,3
11801670143,-3,3,16,5,-2,-6,0,-3
11801670143,-10,-15,-7,-2,-10,0,-6,-4
11801671633,2,7,-6,7,7,4,1,1
11801671633,2,-2,2,-7,3,3,3,2
11801691888,1,9,12,13,2,0,2,-2
11801691888,-2,-13,-25,-10,-8,-5,-2,-2
11801692674,-3,-9,-30,1,-2,-3,-3,-1
11801692674,-7,6,6,4,1,0,1,-3
11801707652,2,-8,15,4,10,1,-1,0
11801707652,0,4,7,-33,0,-1,-1,-2
11801713648,2,-12,-7,1,-2,-5,0,1
11801713648,0,-4,-12,0,-3,-2,2,0
11801729442,-2,5,4,-12,-1,0,3,2
11801729442,-2,5,2,10,6,1,-2,-3
11801730290,5,7,3,-2,-2,-1,-2,-1
11801730290,-8,-7,5,12,-3,-3,-6,-3
11801751862,-2,-7,-8,0,1,1,6,0
11801751862,-3,2,1,4,-4,-1,-10,-3
11801752642,3,5,4,-10,-2,2,7,1
11801752642,0,1,6,10,-1,-7,0,-1
11801767763,-2,1,-9,1,-1,1,1,-1
11801767763,-4,-11,-8,-17,-2,0,-6,-3
11801773763,2,8,11,16,1,-1,2,0
11801773763,-1,-5,-11,-10,-8,-5,-3,-4
11801789453,1,9,0,-5,7,-1,-3,0
11801789453,-1,3,25,22,4,2,5,1
11801790136,3,0,-6,3,9,1,-2,-1
11801790136,-1,-5,-16,-1,-5,-2,-1,-4
11801811919,2,-2,-16,-29,-16,-5,-3,-1
11801811919,-1,-10,-6,15,0,0,-1,0
11801812679,-6,12,45,-17,2,1,0,0
11801812679,7,4,-13,-8,1,-1,2,1
11801827735,-3,-15,4,3,-1,-1,-1,2
11801827735,-2,-3,0,11,-3,-2,-7,-1
11801833694,0,-8,-23,1,-1,0,6,2
11801833694,-2,7,18,5,3,1,1,-2
11801848797,0,4,-8,-4,-1,0,-2,-1
11801848797,1,6,5,-7,-8,-4,-1,-2
11801856260,1,-11,-13,-16,-5,-1,-2,0
11801856260,-8,-1,-1,2,1,0,-3,-1
11801871876,2,6,0,8,1,-1,-1,-1
11801871876,0,-1,-3,-4,-4,-1,1,2
11801872883,-6,-4,4,-5,-4,-2,-5,-2
11801872883,-6,-20,-11,-2,-1,0,-1,-2
11801887661,-8,2,7,18,14,6,1,-3
11801887661,5,9,1,-7,-4,-5,0,0
11801893662,4,11,-1,-9,-4,-3,-3,1
11801893662,4,0,7,3,-7,-4,2,2
11801908798,1,-2,4,7,0,-2,-5,1
11801908798,-1,5,-1,-6,8,4,5,-1
11801916215,-3,-19,-22,4,-5,-5,0,-2
11801916215,-2,7,0,9,1,-1,-3,-2
11801931897,-4,1,6,-9,-8,-4,-3,-2
11801931897,1,0,-2,-19,-7,0,0,-1
11801932559,1,5,1,7,6,1,-5,-3
11801932559,-7,-28,-44,-5,8,3,3,-3
11801947648,4,14,25,10,-2,1,-1,2
11801947648,-5,-17,1,-5,-8,-5,-3,-3
11801953764,-1,3,15,25,2,0,0,-2
11801953764,3,7,-5,-20,1,2,0,-2
11801968738,0,-16,-21,5,1,2,0,-1
11801968738,0,4,-2,2,-1,-2,-1,1
11801976348,2,-1,3,-8,-10,-2,-2,-1
11801976348,3,8,11,3,0,0,-2,-1
11801991861,-7,-6,-12,-15,-4,-4,-4,-4
11801991861,-4,1,10,1,-4,-4,2,0
11801992715,-2,-4,-10,7,6,2,0,1
11801992715,10,8,20,4,2,5,-2,2
11802007854,1,5,2,-3,-9,-1,8,5
11802007854,-2,-4,-8,12,12,1,0,-2
11802013597,-5,-6,-5,-11,-5,-4,-3,-3
11802013597,-2,7,11,-3,-5,-4,-2,1
11802028611,-3,-6,-6,-5,1,-3,-5,-4
11802028611,3,2,-7,3,-7,-4,0,1
11802036133,2,11,9,2,-5,0,1,-1
11802036133,-4,-26,-7,9,2,1,-1,-2
11802051799,-2,-1,-5,1,-4,0,-2,-1
11802051799,-2,-4,-12,-21,-6,2,2,1
11802052606,-7,-13,2,1,7,1,-4,-4
11802052606,3,8,31,5,-9,-6,-1,-2
11802067631,-2,4,-9,1,-2,-2,-2,-3
11802067631,-1,-4,5,4,-2,-2,-3,-1
11802073619,1,0,-28,-12,-3,1,1,0
11802073619,-5,-4,7,0,6,4,2,-1
11802088642,-1,-2,8,5,3,-2,-3,-2
11802088642,-1,6,0,-2,-1,0,-2,-4
11802096155,-5,1,-1,-11,-7,-5,-4,-2
11802096155,3,1,-14,-7,-6,-5,-2,-1
11802111803,4,-5,-1,19,9,2,0,2
11802111803,-2,1,-4,-1,-4,-2,-3,-3
11802112615,1,-5,-1,3,-6,-3,0,1
11802112615,-6,2,-1,-5,-4,-1,-1,-1
11802127664,1,-5,-5,-13,3,1,1,0
11802127664,2,2,3,3,3,1,-1,1
11802133669,-6,-5,5,2,0,2,-6,-2
11802133669,-2,0,2,6,0,0,9,-1
11802148659,1,10,-1,-7,-5,-1,-4,0
11802148659,-5,-16,-24,3,8,1,0,-2
11802156133,5,5,2,-1,1,-1,-1,0
11802156133,0,0,19,3,-2,-2,-5,0
11802171796,-2,12,11,-13,0,-2,-3,-4
11802171796,-1,-8,6,-4,-6,-4,-2,-1
11802172598,2,1,9,15,4,0,-1,-1
11802172598,-1,0,-18,-3,2,0,0,-1
11802187686,0,-5,-6,-4,-2,-3,1,0
11802187686,-2,8,9,-2,-2,-1,-6,-2
11802193637,-1,-4,-2,2,0,0,1,-1
11802193637,0,2,2,1,0,1,-3,0
11802208640,-13,-10,-9,-2,-5,-2,-4,-5
11802208640,8,1,-1,-1,-2,-1,1,2
11802216212,8,-1,-2,-3,-3,3,5,0
11802216212,-5,1,2,7,10,-1,-3,-3
11802231758,-1,0,-2,-19,-3,-3,-1,-1
11802231758,-9,-13,-4,0,-4,-3,-2,-4
11802232536,-3,0,-1,-1,0,-1,-1,-2
11802232536,3,1,-7,8,3,-1,-2,0
11802247574,-1,1,6,6,-2,0,1,-1
11802247574,-2,-2,0,-7,-4,-1,-1,-1
11802253781,-2,-4,-1,-4,-2,-3,-2,0
11802253781,-2,-4,-8,-13,-6,-1,-1,-2
11802268681,1,-6,2,7,0,-1,-3,-1
11802268681,0,2,1,-1,-4,1,1,0
11802276217,-2,-5,1,0,-1,-1,-1,-2
11802276217,-2,7,2,1,0,-2,-2,0
11802291859,1,-1,-14,2,1,3,0,-1
11802291859,0,-6,-8,5,-2,0,7,0
11802292686,-4,-2,5,-19,-2,-5,-4,-3
11802292686,-3,-15,-27,0,-5,-2,-2,-3
11802306290,1,4,-11,-9,2,1,-1,-1
11802306290,-2,0,12,7,-2,-3,-5,-3
11802313763,1,4,-2,-6,0,2,1,0
11802313763,-3,2,-1,8,3,2,-2,-1
11802328760,2,4,12,12,-8,-1,2,1
11802328760,1,-9,-4,-1,11,2,0,2
11802336178,1,2,1,3,-3,-4,0,-2
11802336178,-5,-9,3,-12,-5,1,1,2
11802352002,-3,-6,3,5,2,-3,-3,-4
11802352002,-5,6,2,8,3,0,-1,-1
11802352623,2,1,-5,-11,0,0,0,0
11802352623,5,-3,2,11,-3,-3,-1,2
11802366246,-3,-12,-8,-22,-6,0,1,0
11802366246,-1,2,6,-9,-2,0,-1,-2
11802373689,-5,-5,12,2,2,-2,-3,-1
11802373689,-4,12,-5,-4,-7,-1,-2,-4
11802388733,0,-13,-9,3,1,-2,0,1
11802388733,2,8,-3,-2,6,2,0,0
11802396210,-5,-19,-9,4,-3,-3,-2,-1
11802396210,2,8,8,7,0,-4,-1,-1
11802411760,0,5,4,2,-1,0,-1,0
11802411760,-5,-6,0,-13,-5,-2,-1,-2
11802412540,-3,6,3,0,-3,-2,-1,-1
11802412540,-2,-12,-7,-18,-6,-4,-3,1
11802426103,3,6,4,1,4,-3,-1,-2
11802426103,6,7,-5,10,2,2,-2,1
11802433748,0,6,-1,0,-4,2,1,2
11802433748,0,-5,1,-5,2,1,-1,-1
11802448731,0,2,-1,6,4,-1,0,-1
11802448731,-5,1,-12,-9,-1,-2,-3,-2
11802456206,0,-3,1,1,-3,-4,-2,0
11802456206,1,-1,8,5,-6,0,-1,-1
11802471911,-3,-5,-15,-10,-2,2,0,0
11802471911,-2,-4,-5,1,-4,-1,-1,-1
11802472649,0,7,2,6,2,0,-1,-2
11802472649,0,-2,-4,-3,2,1,3,-2
11802486095,-2,2,6,-2,-3,-2,0,-1
11802486095,0,-16,-7,2,-2,-2,-3,1
11802493754,3,5,12,-5,5,3,2,1
11802493754,-3,-1,-6,8,-3,-5,-4,-3
11802508726,-1,3,-3,-6,-1,-2,-2,-2
11802508726,0,5,3,-3,-3,-2,2,0
11802516211,-4,-8,-7,7,2,0,0,0
11802516211,0,7,4,-15,1,0,-1,-3
11802531896,1,-8,7,-3,-3,0,-1,1
11802531896,-2,2,3,-3,-2,-6,-5,-4
11802532552,1,-4,-13,6,-3,-2,-2,-3
11802532552,-4,-3,2,-18,-5,-2,0,-1
11802546273,-6,-8,-5,7,0,0,0,-2
11802546273,4,6,9,3,-2,1,0,1
11802553609,-1,-2,-8,-5,4,2,-1,-1
11802553609,2,3,-5,-8,-6,-3,-2,-1
11802568740,1,-14,1,-2,2,-1,-3,-1
11802568740,-6,0,2,-4,-6,-1,-1,-5
11802576256,-1,1,-2,10,6,-2,0,-1
11802576256,-1,-1,-4,6,-4,-2,-1,0
11802591765,0,4,-7,-7,5,-1,0,2
11802591765,1,1,-4,-9,-6,-3,-2,-2
11802592557,0,5,12,-1,-1,0,-1,-1
11802592557,-4,-11,-2,3,3,2,1,0
11802606065,3,-2,-5,6,-8,-3,-3,-1
11802606065,-5,1,11,-1,1,-3,-3,1
11802613780,-3,-1,-3,-18,-9,-4,-2,-2
11802613780,-1,-4,8,7,6,1,1,0
11802628746,-1,8,4,-7,0,2,2,-1
11802628746,0,-1,-4,7,4,2,0,-1
11802636225,-1,-3,-5,-2,-5,-3,-2,-1
11802636225,6,4,3,-4,-3,-2,-1,0
11802651934,-3,-2,3,-3,1,0,0,-2
11802651934,2,6,-3,6,-2,-3,-2,-1
11802652657,-4,-2,2,7,-4,-1,-3,-3
11802652657,-5,-6,-12,3,3,2,0,-4
11802666236,1,0,-1,-2,2,1,0,-1
11802666236,2,1,0,-1,-3,0,-1,1
11802673631,-2,-4,-13,-19,0,-1,-1,1
11802673631,-1,-1,1,14,9,-2,0,1
11802688638,-1,2,6,-3,-9,-2,1,-1
11802688638,-1,-2,-2,-1,-2,-1,0,-3
11802696202,1,8,-8,4,-2,1,1,-1
11802696202,-2,-5,6,-22,-3,0,-1,1
11802711865,-2,6,7,1,-1,-2,-3,-1
11802711865,-6,-19,-17,2,6,-2,-1,-5
11802712701,-1,5,5,-7,-9,-3,-4,-1
11802712701,1,6,13,17,4,1,-3,-2
11802726147,-2,-10,-24,-1,-6,-5,-4,-3
11802726147,5,4,3,-6,-1,-2,1,2
11802733711,-5,-5,0,5,3,1,0,-1
11802733711,-4,1,-2,-11,-8,-3,0,-1
11802748702,-1,-4,4,6,-3,-3,-3,-1
11802748702,-1,7,6,8,9,5,1,-2
11802756270,-2,-13,-12,-6,-1,-1,-2,-1
11802756270,2,-1,8,0,-8,-1,-1,-1
11802771117,2,-2,-17,-5,8,0,2,-1
11802771117,-1,-3,-2,-7,-7,-3,-1,-1
11802779308,-3,1,4,-8,5,4,0,-2
11802779308,-4,0,1,0,-4,-2,-2,-3
11802794390,2,4,5,-2,-3,-1,-1,1
11802794390,-2,1,1,14,5,0,0,1
11802795128,-4,-12,-6,-2,-2,1,3,0
11802795128,0,0,-4,-7,0,0,-1,-1
11802808737,3,7,0,2,8,4,2,1
11802808737,-1,-2,-6,-19,-9,-2,-4,0
11802816211,-1,1,15,25,-2,-8,-4,-1
11802816211,1,-2,-6,6,4,-1,0,-1
11802831259,-3,-1,-3,-24,-7,1,0,1
11802831259,4,13,-3,-4,-1,-1,-2,-1
11802839359,0,-6,-4,-1,1,-1,2,1
11802839359,-2,3,-3,5,-4,-1,-1,-2
11802846176,-6,-15,2,9,-1,0,-1,-1
11802846176,4,0,1,3,0,1,0,0
11802853737,-2,-2,-2,-16,-7,-1,-4,-2
11802853737,0,7,-1,-2,5,0,0,2
11802868737,2,2,3,4,-6,-1,-1,-1
11802868737,-5,-9,-4,-4,0,0,1,-1
11802876185,1,0,-1,11,4,2,2,0
11802876185,3,-2,-6,-5,-4,-1,1,2
11802891180,-6,-2,4,1,-4,-3,-3,-3
11802891180,-1,-6,4,5,-2,-4,-2,-1
11802899406,-1,2,-8,-7,-1,-2,-1,1
11802899406,-3,-3,-3,-10,3,3,1,-2
11802906218,3,8,1,12,7,0,0,-1
11802906218,-6,-17,-13,-10,-3,-1,-1,-2
11802913620,1,5,7,5,-3,1,0,-1
11802913620,-3,-10,1,7,-3,-6,-2,-1
11802928716,-3,-5,-4,-15,-3,-2,-1,0
11802928716,-4,-4,-1,-5,-2,0,1,-1
11802936254,2,-1,-9,-8,-3,-1,-1,-1
11802936254,1,3,6,17,-2,0,-2,-1
11802951131,-1,2,0,-16,4,2,-1,0
11802951131,0,5,8,0,-7,-4,-4,-2
11802959287,-2,-7,-2,12,-7,-4,-2,0
11802959287,1,1,-5,10,7,6,1,2
11802974423,-1,-1,3,3,8,0,0,-3
11802974423,-2,0,-4,-8,4,3,2,-2
11802975122,-1,0,1,-4,-9,-6,-3,-2
11802975122,-2,-1,-6,0,-1,-5,-3,-1
11802988814,-4,-2,3,6,-13,-5,-5,0
11802988814,0,-3,-7,1,6,2,-2,0
11802996241,-2,-1,0,-4,2,0,0,-3
11802996241,-1,-3,-3,-7,-9,-2,-2,-2
11803011187,-2,-1,-8,-8,-4,-6,0,-1
11803011187,1,7,8,11,-1,-2,0,-2
11803019446,-2,-1,3,-3,4,4,2,-1
11803019446,-2,-3,-2,6,22,3,1,0
11803034377,0,-4,-1,4,-5,-2,-1,-3
11803034377,0,0,2,9,-8,-3,-1,1
11803035200,2,0,-3,-10,2,-2,-4,-3
11803035200,-2,-1,-1,-35,-9,-1,0,-1
11803048681,1,-2,0,12,0,-1,0,0
11803048681,-1,-2,-5,2,2,-1,-1,-2
11803056069,0,-3,-1,-3,-5,-3,-3,-1
11803056069,-1,-2,-3,-1,-7,-3,-3,-1
11803071259,-1,4,-1,2,-4,2,1,0
11803071259,-3,-1,1,-8,0,-2,-1,0
11803079435,-2,-5,-1,-2,-2,-2,0,-3
11803079435,-3,-2,-2,8,3,-2,-2,-2
11803094337,-2,-1,-2,-12,3,1,-2,1
11803094337,-2,-1,4,0,-2,-3,-1,-2
11803095141,2,2,-3,0,1,2,1,1
11803095141,0,-2,4,7,-12,-3,-2,-2
11803108653,-1,-5,-6,-14,2,1,-2,0
11803108653,-1,2,-5,-14,-4,4,0,-1
11803116193,-2,2,3,1,-6,-4,-2,0
11803116193,-3,-5,-1,15,-7,-8,-6,-1
11803131066,4,5,2,-2,5,-1,0,1
11803131066,-1,-5,-1,4,16,10,4,1
11803139265,0,-2,-1,-4,0,-2,0,-1
11803139265,-2,-5,-4,-5,7,7,4,-2
11803154305,-2,1,2,8,-15,-8,-3,-4
11803154305,3,5,7,9,6,-2,-2,3
11803155180,-4,-3,0,8,0,-2,0,0
11803155180,-1,-3,-4,-19,-11,-6,-4,0
11803168763,-8,-5,0,2,2,1,-2,-5
11803168763,5,3,1,10,-6,0,0,-1
11803176124,8,5,1,12,7,-1,-4,2
11803176124,-2,-11,-6,-32,-17,-9,-5,-1
11803200088,-3,-3,-3,3,8,6,4,-2
11803200088,-3,-2,2,-12,-10,1,1,1
11803200887,-1,2,-1,10,9,-4,-2,-2
11803200887,2,8,8,26,12,10,3,2
11803214332,-5,-7,-11,-51,-7,-2,1,-1
11803214332,-6,-5,-2,9,-5,-4,-2,-6
11803215110,-1,0,-10,-40,-9,-5,-2,0
11803215110,2,7,3,-12,-19,-14,-9,-3
11803228684,-2,-1,3,37,21,11,4,-1
11803228684,5,1,-4,-7,-5,-2,1,1
11803236153,-6,-4,2,16,-2,2,0,-1
11803236153,-2,-1,-3,-12,-16,-7,-2,-1
11803251088,-1,0,-2,-19,-7,-3,-3,-1
11803251088,1,6,-1,17,15,-1,-1,-1
11803259408,1,-10,5,12,6,9,6,0
11803259408,-1,3,-5,-28,-10,-5,0,2
11803274332,-1,-4,0,32,21,5,2,-1
11803274332,-1,-3,-7,-19,-12,-6,-5,-2
11803275190,-1,1,-2,1,-5,-4,-1,0
11803275190,2,2,-5,8,-3,1,-1,-1
11803288690,5,3,10,21,-11,-8,-8,-1
11803288690,-2,-2,-9,-21,21,7,2,-2
11803296215,1,2,-1,-6,-2,1,-1,-2
11803296215,-4,0,-3,24,12,2,2,-2
11803311081,2,7,-2,-26,-12,-9,-3,1
11803311081,-3,-2,7,39,-1,0,-2,-1
11803319222,-3,-2,-8,-47,-17,-5,-2,-3
11803319222,8,-3,-4,8,18,4,0,1
11803334361,-11,-5,-4,-10,-10,-2,-5,-2
11803334361,2,1,2,15,2,-3,-2,-2
11803335074,-2,1,-3,12,2,-3,1,0
11803335074,-3,1,0,8,10,7,4,-1
11803350158,7,1,1,-3,-10,-7,-2,1
11803350158,-4,-2,1,-8,4,2,1,-2
11803356230,-5,-5,-5,4,-4,-3,-3,-3
11803356230,-1,-4,0,-12,-7,-3,-2,-2
11803371230,1,1,-5,9,-4,-3,1,2
11803371230,-5,-9,-8,-23,-11,-1,-5,-1
11803379327,-2,-9,3,7,4,4,-2,0
11803379327,0,-3,5,7,4,1,-2,-3
11803394409,-3,0,-2,-10,2,0,0,-3
11803394409,1,6,-1,-7,-11,-7,-2,-2
11803395102,-1,-5,-3,16,16,5,1,-2
11803395102,-4,-4,-7,-13,-6,-3,-4,1
11803408696,-4,-4,0,-4,-2,2,7,-2
11803408696,-3,1,0,-8,-20,-14,-5,-4
11803416237,5,3,6,12,6,5,1,2
11803416237,3,0,5,4,13,7,2,0
11803431265,3,-4,-8,-18,-3,-2,-5,0
11803431265,-2,1,7,17,-3,-2,0,0
11803439363,-4,0,-12,-43,-8,-11,-6,-2
11803439363,-7,-5,2,10,1,3,0,-3
11803454360,0,0,6,2,-2,-1,-2,0
11803454360,0,-3,-1,0,2,-3,0,-1
11803455216,0,2,3,5,-10,-4,-2,0
11803455216,-3,-2,-6,-6,-3,-5,0,-1
11803468641,0,0,1,14,4,2,-1,-3
11803468641,-2,-5,3,-17,-5,2,-2,-2
11803476211,1,1,1,3,2,-3,-2,0
11803476211,-3,2,-14,-8,-1,-1,1,-1
11803490991,0,2,2,6,-1,-2,-1,0
11803490991,-9,-7,-5,-6,-3,-3,-2,-3
11803498982,-3,-4,-2,-8,-1,0,2,-1
11803498982,8,3,6,32,1,-3,-2,0
11803514360,-2,-5,-13,-27,1,1,-2,1
11803514360,0,-1,9,20,5,3,2,0
11803515089,-5,2,-9,-5,7,-1,-1,-2
11803515089,-1,1,1,-13,-15,-5,-3,-4
11803528625,3,3,5,11,7,2,1,1
11803528625,-1,3,-1,1,0,2,0,1
11803536170,-5,-6,0,1,1,5,0,-2
11803536170,1,2,1,-1,-5,-6,-2,-1
11803551234,0,1,-2,-3,-4,-3,-3,-4
11803551234,1,0,-9,-19,-5,-3,-4,-1
11803559454,-4,2,6,20,-5,-4,-6,-4
11803559454,1,2,-6,-24,1,2,1,2
11803574369,0,-2,3,14,2,1,1,-1
11803574369,1,-2,-3,-6,-5,-2,-1,0
11803575079,0,-1,0,9,11,3,1,-1
11803575079,-5,-5,-1,-7,-4,-1,-2,-3
11803588711,-2,0,4,6,0,0,-2,-1
11803588711,1,-1,-7,-5,-2,-5,-3,-1
11803596284,0,-2,0,-1,-11,-3,1,0
11803596284,-10,-8,4,-14,-8,1,-1,-4
11803611211,4,1,6,26,7,-2,-1,0
11803611211,3,-3,-8,-28,4,-1,-2,0
11803619361,-1,-2,0,-4,-11,-6,-2,0
11803619361,-3,-2,-6,-9,8,4,2,-1
11803634361,0,2,6,11,-14,-5,-4,-3
11803634361,-3,0,0,-2,14,12,3,0
11803635144,1,3,-3,-1,-5,-3,-3,1
11803635144,-1,-1,-1,12,10,3,0,-1
11803648737,-5,-3,0,-12,-8,-2,-3,-2
11803648737,0,-1,-3,3,-2,-5,-4,0
11803656258,-1,2,3,1,-1,3,3,-1
11803656258,2,-2,-6,-6,-3,-2,0,1
11803671058,-3,-1,-6,-12,1,-5,-4,0
11803671058,-5,-1,-1,-3,-4,-2,-1,-3
11803679216,1,-4,-2,6,6,1,0,-3
11803679216,2,3,4,6,-1,-2,-1,1
11803694225,0,-2,-2,-5,1,2,3,0
11803694225,-5,-4,-9,-2,-7,-2,0,-2
11803695175,-1,1,0,-2,4,1,-1,-1
11803695175,-1,1,3,2,-9,-4,-3,-1
11803708726,0,2,-2,2,10,-1,0,2
11803708726,-4,-1,5,12,-8,-4,0,-4
11803716192,0,-3,-1,-15,-1,1,1,-1
11803716192,0,0,0,8,7,6,2,-1
11803731058,-1,-2,0,4,-2,-4,-3,-2
11803731058,0,-1,1,-3,4,-1,-1,-1
11803739389,-1,-4,0,-2,-5,-5,-3,-1
11803739389,-1,-1,-5,-10,-4,-2,-2,-2
11803753567,0,-2,2,10,-1,-1,-2,-2
11803753567,1,-3,-1,4,7,3,1,0
11803761863,-1,1,-2,-10,-9,-2,-2,-2
11803761863,-4,-3,3,7,5,0,0,-1
11803768562,-4,-5,-5,-9,-7,-3,-1,0
11803768562,-1,-2,-2,-6,-13,-9,-3,-4
11803776034,1,3,-3,2,9,6,1,4
11803776034,-3,-2,2,3,5,1,0,-3
11803791188,3,0,-3,-8,0,1,1,0
11803791188,-2,-2,-1,9,3,-2,-2,-1
11803799405,-1,1,-1,-10,-8,-2,-2,-1
11803799405,0,-1,-2,10,-1,-7,-5,-1
11803813702,-4,-2,-3,-2,-1,0,1,-1
11803813702,-1,-1,0,-3,-7,-4,-4,-1
11803821882,-2,-3,0,-4,-12,-3,-2,-2
11803821882,1,1,0,4,24,5,2,0
11803828631,0,-3,-6,-7,0,0,-2,-1
11803828631,-2,0,0,-14,-6,-3,2,0
11803836176,-2,1,1,9,1,-2,-1,-1
11803836176,5,1,2,3,-5,-3,-2,-1
11803851038,-1,4,3,0,1,5,4,-1
11803851038,1,-2,2,-4,3,-1,-1,3
11803859276,-4,-4,2,13,-2,-2,-1,-2
11803859276,-2,-3,-2,-4,-5,-1,-1,-1
11803873666,-1,-2,-2,-11,-5,0,-3,0
11803873666,1,-1,1,18,2,0,-2,-2
11803881906,-3,-4,-3,3,2,-2,-3,-3
11803881906,0,-2,-7,-16,-13,-1,-1,0
11803896894,0,0,1,11,12,4,0,0
11803896894,1,3,3,4,-1,-2,0,-1
11803897557,0,-2,-1,-6,4,2,1,0
11803897557,0,-1,-2,-6,-6,-4,-2,-1
11803911228,-1,-2,-2,-1,-4,0,-1,0
11803911228,0,-1,6,16,6,4,1,-1
11803919379,-1,2,-4,-6,0,-2,0,-3
11803919379,-3,-1,-2,-16,-8,-1,-2,-1
11803933634,-2,-2,-5,4,-9,-6,-3,-1
11803933634,-1,-1,-4,-4,4,1,-2,-2
11803941902,1,2,1,2,5,0,0,0
11803941902,-6,-3,-1,3,-2,-1,-2,-3
11803956855,-2,-2,-1,-3,-3,-5,-2,-2
11803956855,2,0,1,8,6,0,2,1
11803957532,-2,-2,0,-6,-4,-2,-2,-1
11803957532,1,-1,1,-4,-1,0,-3,0
11803971188,0,-2,-4,7,2,1,-1,-1
11803971188,-2,-1,-3,4,0,-1,-1,1
11803979429,0,-2,-3,-5,-9,-2,-4,0
11803979429,-1,2,-3,8,8,0,0,-1
11803993680,-5,-2,7,2,-3,-1,0,-2
11803993680,-4,-4,-7,-14,-6,-3,-2,-3
11804001957,10,7,1,-1,10,2,1,1
11804001957,-1,0,-2,-6,-8,-4,-2,-2
11804016763,-1,-2,-3,-10,-6,-3,-3,-1
11804016763,-1,0,1,-2,-3,-1,-2,-1
11804017583,-3,-1,3,4,-8,-5,-2,-1
11804017583,-2,-3,-5,-4,-2,-2,0,-4
11804031019,0,-1,1,16,5,-1,2,0
11804031019,-4,-2,0,-9,8,3,1,-2
11804039217,0,-1,-1,1,-8,-4,-1,1
11804039217,5,1,1,-1,-4,-4,-1,3
11804053640,-2,-1,-2,-6,-5,-1,2,-2
11804053640,1,0,-2,-9,0,0,-3,1
11804061745,0,2,-1,-4,0,0,0,0
11804061745,-4,-2,3,1,-3,-1,-1,-3
11804076894,-2,-3,-2,-10,-8,-2,-2,-1
11804076894,4,3,1,10,-3,-4,-2,1
11804077642,-3,-3,-9,-17,9,3,-1,-3
11804077642,-3,-3,6,21,0,3,0,0
11804091176,1,-5,4,0,0,-3,-3,1
11804091176,-1,0,-3,-9,3,2,0,-2
11804099409,-3,-2,-1,5,1,-1,0,-1
11804099409,-1,-4,-1,-7,-8,-2,-1,-1
11804113624,1,3,-3,-9,7,4,4,0
11804113624,1,-3,-3,1,-1,-2,0,-1
11804121835,-2,-5,-1,5,-1,-3,-1,-2
11804121835,0,2,2,1,0,-5,-2,-2
11804136770,-2,-3,-1,0,-9,-5,-2,0
11804136770,-4,-3,-2,-4,5,3,1,-1
11804137665,-2,-2,-1,1,0,-1,-2,-1
11804137665,-3,-3,-1,-4,0,1,0,0
11804151198,4,2,-1,1,-5,-6,-3,-2
11804151198,2,1,-2,2,-6,-2,-1,2
11804159334,-2,-4,-1,-4,-3,-1,-2,-1
11804159334,-1,-4,-4,0,3,5,0,-1
11804173690,-3,-3,-1,-6,2,-1,-3,-2
11804173690,-1,1,1,-1,-4,0,0,-2
11804181858,-2,-2,-2,-1,-7,-1,-1,-1
11804181858,-1,1,0,10,-1,-3,-2,-2
11804196845,-2,0,-3,-23,-7,-2,-1,-1
11804196845,0,-2,0,13,0,-6,-4,-1
11804197635,0,0,0,-6,0,4,1,-2
11804197635,-2,-4,-4,5,7,2,1,-2
11804211051,-1,-4,0,4,-5,-2,-1,1
11804211051,-2,1,-2,-4,-8,-4,-2,-2
11804219193,-5,-2,1,10,10,2,1,-1
11804219193,1,1,1,-2,-7,-3,-1,0
11804233666,3,1,-2,-3,4,2,0,0
11804233666,-1,-1,-1,-7,-6,-2,-2,1
11804241760,-1,2,1,-3,-6,-5,-3,0
11804241760,-2,-1,-3,-4,4,4,0,-2
11804256702,-6,-2,-2,2,0,1,0,-3
11804256702,-3,-6,1,-5,-8,-3,-2,-3
11804257511,4,0,1,7,4,0,1,2
11804257511,0,-2,-2,-7,1,-3,0,2
11804271193,-2,3,1,0,-5,-1,-3,-2
11804271193,-3,-2,-6,0,-3,0,0,-4
11804279378,4,-3,0,-3,4,0,0,1
11804279378,1,1,-3,7,2,-1,-1,2
11804293707,-1,-1,0,2,-5,-1,0,0
11804293707,-2,-3,-2,-2,3,0,-2,-2
11804302681,-3,-3,0,0,-9,-3,-2,-4
11804302681,1,2,-8,-15,-4,0,-1,0
11804316161,1,2,-2,8,5,1,-2,-1
11804316161,-2,-1,-2,0,-5,-5,-5,-1
11804325068,-1,-2,4,10,-7,-1,-2,-1
11804325068,-2,-2,-1,-2,16,3,1,-1
11804331089,0,-2,-2,-8,-2,-2,1,0
11804331089,3,3,0,-3,1,-1,0,0
11804340110,0,2,-4,-6,-10,-5,-2,0
11804340110,0,0,7,1,-8,-2,-1,-1
11804353606,-6,-5,0,11,3,1,-1,-1
11804353606,0,-1,-3,-4,1,4,1,1
11804362577,-3,-2,1,7,-1,-2,-3,-3
11804362577,-1,-1,0,2,-4,0,-2,-3
11804376058,0,-2,-2,-16,-5,-4,-1,0
11804376058,0,-1,-1,2,0,-2,1,1
11804385036,-2,-2,-3,2,0,2,1,-2
11804385036,-3,0,-4,-18,-9,-6,-5,-1
11804390992,-1,-1,-4,21,19,9,3,-1
11804390992,-1,0,1,-3,-4,-3,-1,-1
11804400048,-2,-1,0,15,3,-1,-1,-1
11804400048,-2,0,-1,-14,-2,-2,-2,-1
11804413574,0,-1,-3,-10,-9,-5,-1,-1
11804413574,2,-3,1,4,1,0,-1,0
11804430133,0,0,-2,-13,-8,-1,0,-1
11804430133,1,-1,0,15,15,4,-2,-2
11804436052,-1,3,0,5,-3,-1,-2,-1
11804436052,-3,-4,-3,-6,4,4,4,-3
11804445137,-1,-6,-3,-9,1,-1,0,-1
11804445137,-2,-3,-2,-3,-6,-5,-3,-1
11804451044,0,0,0,2,-9,-4,-3,-1
11804451044,1,1,0,4,8,-2,-3,2
11804460241,0,1,0,2,0,-2,0,0
11804460241,0,0,1,4,-5,-1,1,-1
11804473585,-1,-3,-5,-5,10,1,0,0
11804473585,-1,0,-2,-9,-10,-2,-3,-2
11804482608,-1,-4,-3,-5,5,-1,-2,-1
11804482608,-2,-2,1,1,-2,1,0,0
11804496199,1,-2,0,-1,0,3,-1,-1
11804496199,3,2,4,-4,-2,-1,0,-1
11804505098,-2,-1,-6,6,7,3,-2,-1
11804505098,0,-2,-5,-12,-6,-4,-1,-2
11804511084,-3,-2,-1,7,4,0,2,-1
11804511084,-3,2,3,3,0,2,0,-1
11804520076,-2,-1,-2,-8,-3,-4,-4,-2
11804520076,-1,-5,-3,0,-2,-2,-4,-1
11804533581,0,0,-2,-6,-6,-3,-2,0
11804533581,-3,-2,1,0,2,1,2,0
11804542559,0,2,-1,-4,-3,-4,0,-1
11804542559,-3,0,0,3,-9,-5,-3,-1
11804556198,1,-1,1,0,10,2,0,-1
11804556198,-3,-2,-1,7,1,2,1,-2
11804565053,-3,-1,-1,-6,-4,-2,0,-3
11804565053,0,-1,-1,1,-4,-2,-1,-1
11804570998,0,-4,-1,-4,-4,-1,-2,-1
11804570998,-1,-2,-3,-10,2,-1,-1,0
11804580014,0,0,3,6,2,-2,0,0
11804580014,-2,0,2,1,-5,-4,-1,-3
11804593691,0,0,-5,-5,5,3,2,0
11804593691,0,0,-3,2,-3,-3,-1,-2
11804602587,1,1,0,-11,1,3,0,1
11804602587,-2,-1,0,18,3,0,-2,0
11804616108,-1,-1,-1,-6,-8,-6,-5,-1
11804616108,-2,-4,-4,-1,-1,-1,0,-2
11804625057,1,2,-1,4,-2,-3,-2,-1
11804625057,-2,1,0,-8,-5,0,2,-1
11804631104,1,0,2,-6,3,1,2,0
11804631104,0,2,-2,14,6,-1,-2,0
11804640069,-3,-3,3,10,-6,-3,-2,-1
11804640069,-1,-4,-6,-16,3,0,-1,-1
11804653666,-1,-2,-2,-2,-5,-2,-2,-2
11804653666,-1,-3,-3,-10,-6,-3,-3,0
11804662556,1,1,-1,-5,-4,-3,1,-1
11804662556,-2,-1,0,7,-8,0,0,-1
11804676179,-1,-1,-2,-1,12,2,3,0
11804676179,-3,-3,-2,3,-2,-1,-3,-2
11804685028,-2,-2,-1,-4,-1,-1,1,-1
11804685028,3,2,1,-23,-9,-2,-2,-1
11804691157,0,-1,1,24,1,-1,-2,-1
11804691157,1,0,2,8,0,1,0,0
11804700062,-1,-4,-8,-13,-3,-2,-3,0
11804700062,1,-1,-2,11,3,-4,-1,-1
11804713665,-3,0,-4,-18,-7,-4,-3,-2
11804713665,-3,0,2,-2,-3,1,0,-2
11804722533,1,-2,-3,-5,-2,-1,-2,2
11804722533,2,0,1,-1,4,2,2,1
11804736910,-2,-2,-3,7,6,1,1,-1
11804736910,-2,-3,0,2,-3,-1,-1,-1
11804743579,-5,-1,-4,-7,3,0,-1,-3
11804743579,-1,2,3,12,5,3,1,-1
11804751081,-1,0,-1,-11,-16,-7,-3,0
11804751081,0,-6,-4,2,9,2,-1,-1
11804760036,-1,-3,-4,-4,1,0,-2,-1
11804760036,-2,-2,-2,4,7,0,0,-2
11804773598,0,1,5,8,-10,-3,-4,-2
11804773598,-1,-2,0,-14,-3,1,2,0
11804782655,0,1,3,8,3,1,0,-1
11804782655,0,-2,0,-2,-4,-5,-3,-1
11804796832,-1,-5,-6,-9,-11,-4,-2,-3
11804796832,0,1,-1,-4,-6,-1,1,2
11804803596,-3,-2,2,6,0,1,-2,-2
11804803596,-1,-2,-2,-1,5,2,0,-1
11804811037,-3,0,2,3,2,1,1,-1
11804811037,-1,0,-3,-9,-10,-5,-3,-1
11804820192,0,1,-1,-4,-1,-1,-1,0
11804820192,-2,-1,1,-4,-4,-1,-1,-3
11804833676,-2,-2,-3,5,-2,2,-1,-2
11804833676,-2,-2,-5,-5,2,1,0,-2
11804842643,-1,-2,2,-2,-5,-3,-1,-1
11804842643,1,-1,1,7,-3,-4,-2,-2
11804856871,0,-2,-8,-16,5,1,-1,-1
11804856871,0,2,0,-2,-2,1,-1,-1
11804863677,0,1,3,5,6,4,2,-2
11804863677,-4,-2,-4,-5,-4,-3,-2,-3
11804880026,2,0,1,1,-6,-1,-2,0
11804880026,-1,0,1,2,3,-1,-2,-1
11804881530,-2,-2,-3,-14,-1,2,0,0
11804881530,-3,-3,-4,21,9,1,-2,-2
11804893669,-1,-2,2,-4,-5,-6,-1,-3
11804893669,0,2,-1,-4,-4,-4,-3,0
11804902527,0,3,-1,1,-1,-3,1,-2
11804902527,-2,-6,-3,-8,-6,-4,-1,2
11804916764,-1,0,0,-3,-3,-1,-2,0
11804916764,-1,-2,-3,-4,0,-1,-2,-2
11804923584,-1,-1,0,0,-1,1,-1,-1
11804923584,-1,0,0,-4,4,0,1,-1
11804939904,-2,-3,-1,3,1,-3,1,-2
11804939904,-2,-4,-1,2,-1,-1,-1,-2
11804941462,-2,-2,-5,-3,-4,-2,-2,-1
11804941462,1,1,0,-3,0,2,-1,1
11804953650,-3,-2,1,10,1,0,0,2
11804953650,-3,-2,-4,-4,-2,-3,-5,-3
11804962599,-3,-5,-4,-18,-9,-3,-2,-2
11804962599,0,0,-4,2,17,5,4,1
11804976772,-1,0,0,0,0,0,-2,-2
11804976772,-1,0,5,17,2,-2,1,-1
11804983607,5,2,0,1,-4,0,0,1
11804983607,2,2,-3,-6,-5,-2,-2,0
11804999981,-2,-4,-4,-10,-2,-3,-1,1
11804999981,-4,-3,1,-5,-7,-2,-1,-3
11805001607,-1,-2,0,9,12,2,1,0
11805001607,0,0,0,-8,-5,1,0,-1
11805013607,-3,0,-1,2,-1,-3,-2,0
11805013607,4,1,-3,1,-8,-3,-2,0
11805022636,2,0,-1,-5,1,0,1,0
11805022636,-1,1,-1,-7,-4,-3,-2,0
11805036870,-3,-3,2,16,5,0,0,-2
11805036870,-1,-1,-3,-12,2,0,0,-2
11805043637,-2,-3,-2,-1,-13,-4,-3,-4
11805043637,-1,1,2,-3,3,1,-3,-1
11805059857,1,1,4,3,-3,-1,-1,0
11805059857,0,-1,2,-1,2,1,0,2
11805061459,-2,-4,-2,6,4,0,2,0
11805061459,-1,-3,1,-11,-15,-6,-2,-2
11805073623,-1,1,-2,1,3,1,-3,-2
11805073623,0,0,0,6,-2,-1,-3,0
11805082663,-4,-1,-1,-3,0,-1,-1,-3
11805082663,-2,-8,0,-6,-1,2,0,0
11805096733,2,3,-2,1,3,0,1,3
11805096733,-1,-2,-2,5,4,0,-2,0
11805103548,-3,-5,-2,-9,-2,-2,-1,0
11805103548,-1,1,-1,0,-1,-3,-1,-2
11805119838,2,1,0,-5,-8,-3,-1,-1
11805119838,-2,-3,2,6,9,3,3,-3
11805121463,-2,-1,-4,-4,-7,-4,0,0
11805121463,-3,-1,-4,-3,1,-1,-2,2
11805133618,0,-4,0,-8,0,1,-2,0
11805133618,2,-1,-2,2,1,2,1,-2
11805142586,0,1,4,5,-5,-6,-5,-2
11805142586,0,1,-2,8,-3,-3,-2,-4
11805156813,-5,-4,-6,-17,-3,4,1,-1
11805156813,-7,-3,-3,2,1,-1,-2,-2
11805163660,2,-3,1,2,0,0,-1,-1
11805163660,3,-1,-2,10,0,-6,-3,0
11805179983,0,1,0,-3,0,-1,0,-1
11805179983,3,3,-1,-4,-2,-2,-2,1
11805181497,-3,-1,-3,-5,1,0,-1,0
11805181497,-5,-3,-1,3,3,-1,-1,-3
11805193611,-1,0,-1,-7,-12,-4,-2,0
11805193611,-1,-1,1,11,16,1,0,1
11805202579,2,2,0,16,8,3,1,1
11805202579,0,-2,-4,-21,3,3,0,-2
11805216869,-2,-2,1,6,0,-1,-1,-1
11805216869,-2,-2,-4,-13,-10,-5,-2,-1
11805223625,1,2,0,-5,-4,-2,-2,0
11805223625,-1,-3,-3,0,1,3,1,-1
11805240066,-2,-1,-1,-5,-8,-6,-2,-2
11805240066,0,-2,3,10,4,-1,-1,0
11805241630,-1,-3,0,8,6,3,0,-1
11805241630,-3,-5,-1,-16,-13,-1,-3,-1
11805253628,0,-2,-2,5,11,3,-1,0
11805253628,2,2,-3,-5,-5,-3,-1,-1
11805262681,-3,-5,-3,-3,-1,1,1,-2
11805262681,0,4,2,1,-11,-7,0,-1
11805276862,0,0,3,9,9,-2,-3,-1
11805276862,-5,-5,-8,-27,-1,4,1,-1
11805283542,-1,-1,-2,0,3,0,-1,1
11805283542,0,-1,-2,0,3,0,1,0
11805299874,2,-1,-1,7,-5,-5,-3,-1
11805299874,0,-1,-1,3,-5,-2,-1,-1
11805301522,0,-2,0,-6,-5,-2,-2,-2
11805301522,-4,-2,1,2,3,3,0,-1
11805313510,0,0,-3,-4,-4,1,-1,1
11805313510,0,-2,-1,5,-2,-3,-3,-1
11805322513,-6,-5,-1,2,-3,-2,-1,-3
11805322513,-1,0,1,2,2,-1,-1,-1
11805336803,-1,-1,-1,-6,-7,-3,-1,-2
11805336803,-1,2,-1,3,-8,-2,-2,0
11805343652,-1,0,-1,-3,7,1,-1,-1
11805343652,0,-2,-4,-3,0,-2,-1,0
11805360017,-2,-2,-1,4,5,3,3,-2
11805360017,0,-3,-3,-13,-10,-9,-1,1
11805361606,-1,1,2,7,-5,-3,-3,-1
11805361606,0,0,4,1,5,3,1,0
11805373618,-1,0,-1,-4,0,1,0,0
11805373618,-2,0,2,2,1,1,0,-2
11805382577,0,2,-3,-6,0,-2,0,-3
11805382577,-1,1,2,11,0,0,-1,-2
11805396700,-3,-4,-3,0,-5,0,-1,-1
11805396700,-3,-3,-1,-5,-3,-1,-1,-2
11805403612,0,2,0,-2,1,0,0,1
11805403612,1,2,1,0,-3,-3,-2,0
11805419965,-2,1,-3,-6,-1,-1,-2,-1
11805419965,-1,-4,-2,-1,-4,-5,-2,-2
11805421583,-1,-3,0,9,6,0,-1,-2
11805421583,-1,-2,-2,-3,-3,0,-1,0
11805433639,1,2,0,-3,-2,-2,-2,1
11805433639,-2,0,3,5,-1,3,3,-1
11805442471,0,0,-2,-8,-6,-5,-2,-3
11805442471,0,-2,-3,-6,2,-1,1,1
11805456831,-2,-2,-1,4,0,1,-1,-1
11805456831,0,2,-1,-3,5,3,-1,0
11805463656,-2,-4,0,12,1,-3,-1,0
11805463656,-2,-3,-2,-6,-3,-1,-1,0
11805479854,-1,1,3,-9,-3,-2,-1,-2
11805479854,-1,0,-6,-8,-4,1,0,-1
11805481492,0,0,2,13,2,-2,-1,-1
11805481492,-2,-3,-3,4,4,-1,-2,-3
11805502500,0,-1,0,4,-1,-3,-1,-1
11805502500,0,-1,-1,-2,0,-1,-1,-1
11805504016,0,-1,0,-10,-8,0,1,1
11805504016,-1,-1,0,2,-2,-1,1,0
11805516791,-2,-2,2,9,-4,-4,-1,-4
11805516791,-2,-1,-9,-22,-2,0,-2,-1
11805523641,3,7,1,-1,-1,0,-1,0
11805523641,-3,-3,-1,1,1,0,-1,-1
11805539959,-2,-3,-2,0,-3,0,-1,-1
11805539959,0,-2,3,12,10,4,1,-2
11805541507,-1,-3,-3,-9,-10,-4,-2,0
11805541507,-2,-2,3,-4,-3,-2,-1,-2
11805553583,0,-1,-6,15,18,1,-1,1
11805553583,-2,-1,1,-2,-5,-3,0,-1
11805562574,-1,-1,-1,2,3,3,1,-2
11805562574,0,0,-1,-2,-7,-3,0,0
11805576920,-1,-1,-1,-11,-7,-4,-3,-2
11805576920,-1,-1,2,11,-3,-2,-3,-3
11805583545,-3,-3,0,-8,1,2,0,-2
11805583545,-1,0,-1,-3,-3,1,-1,-1
11805600018,1,0,-3,4,1,1,1,-1
11805600018,0,0,1,6,0,-4,-2,0
11805601510,-2,-2,-5,-17,-3,-2,-2,0
11805601510,1,2,-2,-7,-6,-4,-3,-3
11805613615,-2,1,-2,10,1,2,0,1
11805613615,-1,-2,-2,-1,2,0,-1,1
11805622558,0,-2,-1,0,1,-3,-3,-2
11805622558,1,-1,-1,5,5,3,1,-1
11805636853,-3,-4,0,-4,5,3,2,-3
11805636853,1,0,2,0,-10,-4,-3,-1
11805643496,0,1,-1,-3,0,1,-1,-1
11805643496,-1,-2,-3,-1,-4,-4,-3,-2
11805659238,-1,-3,-2,-10,-10,-8,-3,0
11805659238,-2,-1,-3,-5,1,1,-1,-1
11805665960,-5,0,0,5,3,-2,-2,1
11805665960,-2,3,0,0,-4,-3,-2,1
11805673542,0,-1,-2,-2,1,1,-2,-2
11805673542,-1,2,1,-1,2,-2,0,-2
11805682535,0,-3,-2,-4,-4,-1,0,1
11805682535,0,-3,0,4,-3,-2,-3,-1
11805696833,-1,-1,-1,-5,8,5,1,-1
11805696833,-2,-1,0,6,-4,-3,-3,-1
11805703489,-3,-1,0,-20,-18,-4,0,-2
11805703489,-1,-1,0,26,18,4,-1,0
11805719242,0,0,-9,-23,-8,-7,-4,-1
11805719242,-1,-4,3,2,4,4,1,-1
11805726058,-1,-4,-8,11,0,-1,-1,-1
11805726058,-1,-1,-2,-5,-8,-5,-3,-2
11805733577,0,0,2,-2,-5,-3,0,-1
11805733577,-2,0,-4,-10,-5,-3,-3,0
11805742549,-2,-3,-1,12,-2,-2,-2,-3
11805742549,1,-1,-2,-14,-1,2,2,0
11805756705,-1,0,-3,-8,-2,-2,-1,-1
11805756705,0,1,-2,-1,1,-2,1,-1
11805763667,-1,0,-1,0,-1,3,-1,-1
11805763667,-2,-6,0,8,12,3,2,-3
11805779260,-1,-1,0,-6,-9,-2,0,-1
11805779260,-3,-3,-1,-3,-7,-4,-1,-1
11805785984,0,-1,-3,1,1,0,-5,-1
11805785984,-4,-2,0,-2,-4,-5,-3,1
11805802373,-2,-1,0,1,-1,-1,-2,-2
11805802373,1,-1,-1,8,2,2,1,-3
11805803982,2,2,1,0,1,1,1,0
11805803982,0,2,0,-4,-7,-1,-1,0
11805816698,-1,0,-4,-8,2,-1,-1,0
11805816698,-2,-1,-1,1,-3,-1,-3,0
11805823505,-1,-2,0,-13,-3,-3,-2,-1
11805823505,0,-1,2,9,1,2,1,-1
11805839232,-3,-2,3,-2,-6,-1,0,0
11805839232,-2,-3,2,3,-2,0,-2,-2
11805845912,0,-3,-6,-8,6,2,1,-1
11805845912,-2,0,0,-10,-7,-3,1,-3
11805862461,1,-2,-3,12,4,-2,0,-1
11805862461,0,1,-4,-3,-3,0,-2,0
11805863934,-1,-1,1,4,-3,-2,-3,-1
11805863934,0,0,-3,-1,4,0,-1,-1
11805876687,-1,-2,2,-1,-4,1,-2,-1
11805876687,-1,0,-1,1,-1,-2,0,-1
11805883605,1,1,-1,1,4,0,-1,0
11805883605,0,0,-2,-2,-3,1,0,-1
11805899301,-2,0,0,0,0,-1,-3,0
11805899301,-2,-7,0,2,-1,-4,-1,-1
11805906003,0,0,-3,-2,2,2,0,-1
11805906003,-2,-1,-5,-7,-3,-3,-1,-2
11805922281,0,1,0,-8,-5,-1,-2,-2
11805922281,-2,1,-4,3,3,-2,-4,-1
11805924016,-3,-3,6,10,-6,0,-1,-3
11805924016,-1,-2,-2,4,7,0,-1,-2
11805936878,1,0,-2,5,8,4,1,1
11805936878,1,1,-1,-4,-2,0,-1,1
11805943589,-2,-2,1,7,-2,-2,1,-1
11805943589,-3,-2,-4,-12,-7,-2,-2,-2
11805959356,-1,-3,3,3,-4,0,0,-1
11805959356,-1,2,0,-6,0,-1,-1,-1
11805966046,0,-1,-7,-10,-6,-4,-1,-1
11805966046,-1,-4,0,8,1,4,0,0
11805982387,-1,-1,0,5,3,2,2,-1
11805982387,0,-2,2,-3,-3,-1,-3,-2
11805984001,0,0,-1,-6,-5,-3,-1,0
11805984001,-2,-1,-1,1,5,0,-1,0
