timestamp,emg1,emg2,emg3,emg4,emg5,emg6,emg7,emg8
6670094796,-2,-10,0,-6,-8,-4,-2,-2
6670094796,-1,-20,1,3,2,1,0,-1
6670096893,1,22,1,-2,-2,-2,-3,-2
6670096893,1,-1,-1,-4,4,2,7,1
6670097800,-2,-19,-1,4,-3,-2,-10,-2
6670097800,1,15,2,3,5,2,12,-1
6670099083,0,3,-5,0,-8,-7,-8,1
6670099083,-2,-18,0,-3,-5,-5,-4,-4
6670107060,-1,5,1,-7,-4,5,3,1
6670107060,-1,13,2,16,10,4,-1,-1
6670114180,-1,-15,-5,-16,2,0,-1,-1
6670114180,0,-5,-8,1,-13,-15,-10,-2
6670125640,-1,21,3,-2,0,-2,1,-3
6670125640,-2,-7,-1,2,3,6,0,-1
6670137051,-1,-23,2,-1,-6,-2,-2,-2
6670137051,1,12,4,-2,-4,-4,-4,-1
6670145642,-3,7,-2,-6,-5,-1,-2,-2
6670145642,0,-17,-4,-6,-5,-4,-4,0
6670152912,-2,-1,0,6,5,3,4,-3
6670152912,3,8,-4,-5,0,4,0,1
6670167877,0,-5,1,3,3,-2,-3,-2
6670167877,-4,-6,-1,-9,-11,-8,-2,3
6670174232,-3,12,0,13,10,2,-6,-4
6670174232,1,3,-1,-1,-2,0,5,1
6670221575,1,33,-2,-8,-8,-5,-5,-1
6670221575,4,-1,3,-3,-5,-2,-5,-2
6670222394,-5,-31,-3,19,4,-5,-5,-1
6670222394,-2,31,-6,-10,0,1,-3,0
6670223217,-4,-5,-1,8,10,5,5,-2
6670223217,-2,-29,-6,-13,-6,-3,0,-1
6670226471,2,17,3,-3,1,2,0,2
6670226471,4,8,2,13,3,2,2,1
6670233941,1,-25,2,4,-3,-4,-1,0
6670233941,-1,0,-4,-14,-4,-2,-2,-2
6670242941,-9,17,-3,-6,-5,-5,-3,-6
6670242941,1,-8,6,-4,-2,-3,-2,0
6670248995,2,-11,-3,-4,-4,-5,-2,0
6670248995,-3,22,-9,9,3,-3,1,-1
6670265403,1,4,2,-8,-7,-4,-20,1
6670265403,-5,-22,-3,3,1,3,30,-1
6670271466,-4,7,1,-1,-2,-4,5,-5
6670271466,-7,12,4,0,-1,-1,-21,-4
6670280419,-4,-11,-5,-4,0,-2,21,-13
6670280419,10,-3,2,-1,-6,-27,-34,3
6670294094,7,18,-6,-4,-3,21,-37,10
6670294094,5,-6,-1,4,3,-1,11,-13
6670302962,8,-10,-3,-5,-3,4,-29,4
6670302962,-9,17,1,4,8,2,-14,1
6670309113,-17,-13,0,-4,-6,-11,29,-1
6670309113,-22,-16,0,-4,-7,3,-22,-25
6670324068,6,3,1,5,2,-4,-17,-2
6670324068,4,-10,-3,-5,-10,-6,-17,-9
6670331549,0,4,8,5,10,3,-4,-3
6670331549,5,-2,3,1,-2,3,14,14
6670340466,9,31,2,-7,0,3,23,3
6670340466,31,70,27,17,3,8,7,2
6670354146,-11,18,-21,-18,0,-4,5,2
6670354146,-11,6,7,7,-4,-9,3,-2
6670362967,-64,-25,-12,-12,-2,-2,-1,-12
6670362967,16,-11,-16,3,3,4,5,6
6670368958,13,-26,16,-22,-14,-8,-10,1
6670368958,69,82,60,52,5,4,8,19
6670384086,-31,-47,-35,6,27,4,-3,-13
6670384086,-64,12,-27,-27,-20,-12,-3,-13
6670391580,-26,6,-32,-34,-15,-4,5,-8
6670391580,23,27,-29,25,12,-4,2,10
6670400452,17,-27,38,37,-8,3,7,5
6670400452,36,27,36,-13,21,14,15,13
6670414082,-21,-61,-22,-15,-7,5,-7,-12
6670414082,-9,89,6,-48,-27,-18,-8,-3
6670422950,21,63,0,17,17,16,3,3
6670422950,-27,-40,24,27,-18,-8,-9,-5
6670429028,27,-24,2,-1,21,13,13,11
6670429028,-26,-72,-19,4,8,-2,-3,3
6670444119,12,42,-2,-13,-15,-11,-7,-1
6670444119,9,36,-6,-45,-18,-3,0,2
6670451588,18,10,21,34,3,-8,-6,-3
6670451588,-40,-51,-30,-2,14,8,11,-5
6670460474,18,-8,0,-20,-15,-9,-2,6
6670460474,-5,10,-7,10,10,2,-17,-5
6670474086,-4,20,4,-2,-19,-10,10,-4
6670474086,2,-30,0,20,12,10,12,3
6670482991,4,10,6,1,6,5,-4,3
6670482991,-2,-48,-19,-12,-25,-19,-20,-6
6670488980,15,-30,0,0,-5,13,23,2
6670488980,-19,-15,6,2,17,17,9,-4
6670504120,-9,-22,0,9,10,-2,8,1
6670504120,-25,-76,-14,8,-14,-11,10,-6
6670511612,15,26,-9,8,7,-3,-18,-3
6670511612,0,-3,12,-39,0,-18,-6,-2
6670520444,11,-17,-5,7,-18,-9,-9,-2
6670520444,12,2,13,-19,-5,1,6,-1
6670534071,-19,14,-9,17,36,1,-7,1
6670534071,3,13,-9,-9,-38,-15,-10,-6
6670542980,-8,-20,-3,3,19,-3,1,-1
6670542980,13,13,5,80,-27,-9,4,4
6670549124,-21,4,4,-78,35,1,-4,-12
6670549124,7,-7,-9,-16,-1,12,0,4
6670564114,-5,18,-4,-45,-25,-9,-1,-3
6670564114,9,53,-5,14,5,-5,1,0
6670571635,0,13,17,38,-12,7,-1,2
6670571635,-10,-26,4,4,-2,-1,-9,-6
6670580452,4,-8,-2,1,10,-4,-2,2
6670580452,-14,-20,10,-27,7,17,13,-5
6670594109,7,-8,1,14,-16,-22,-12,2
6670594109,-1,-21,7,30,21,10,2,-1
6670602976,-5,-8,-10,-12,-19,8,9,3
6670602976,-2,-28,-6,-1,30,9,-4,-4
6670609149,-8,-13,5,35,-6,0,3,0
6670609149,16,12,-26,-38,2,5,2,10
6670624060,-4,-16,2,1,-5,-12,-2,-2
6670624060,-4,-27,-13,-5,14,14,-17,5
6670631583,-1,16,-1,-6,-10,-7,2,-4
6670631583,4,-8,13,13,-9,-3,-4,-3
6670640477,-5,-4,-9,-1,-2,-5,1,-2
6670640477,1,1,-6,-30,-1,4,2,-1
6670654109,10,15,-4,11,-12,-2,-19,-3
6670654109,-6,4,-1,-5,1,2,3,7
6670662956,5,-5,17,-8,4,13,0,3
6670662956,-9,-29,-17,0,2,-2,16,-5
6670668997,3,-16,-3,-9,-6,1,-14,3
6670668997,-5,-13,-1,3,0,-12,-7,-10
6670684114,4,-2,2,-3,-3,1,-26,2
6670684114,5,3,-2,-1,0,-10,6,-8
6670691578,-16,-5,0,0,-2,7,28,7
6670691578,3,-2,-3,-10,0,-2,-4,-8
6670706595,3,-1,1,8,-3,6,10,6
6670706595,-5,2,-2,-7,3,1,-15,3
6670714119,5,-2,-1,-4,-1,-7,-11,-9
6670714119,3,5,3,3,-8,1,6,0
6670722967,2,10,-3,0,0,-4,2,-4
6670722967,7,13,-1,-1,4,2,-1,-3
6670728959,-22,-3,-2,-3,2,3,-2,7
6670728959,16,29,19,4,-8,-10,0,8
6670744164,-29,18,-3,5,6,5,-10,-9
6670744164,4,9,-11,-15,-1,6,9,4
6670751607,0,-4,14,10,-6,0,-2,-2
6670751607,29,59,18,5,8,0,9,7
6670766583,-23,-24,-19,-13,3,-1,7,-7
6670766583,-20,-15,-26,-25,-15,-9,-16,-13
6670774029,-3,-61,-9,14,5,1,12,-4
6670774029,3,75,21,18,-1,3,-6,9
6670782936,28,-9,38,16,-14,-7,-5,0
6670782936,2,-74,-23,-22,3,3,5,6
6670788926,-2,105,33,73,17,0,-8,-2
6670788926,-10,-62,-28,-30,-10,5,-1,-10
6670804076,-5,-85,-57,-31,10,5,8,2
6670804076,-10,56,38,50,10,6,7,3
6670811581,7,12,-50,-71,-17,-6,13,-8
6670811581,3,73,59,45,-4,-4,-32,-4
6670826588,15,97,101,-18,-9,-11,7,12
6670826588,-15,-40,-15,-85,-11,-9,-19,-12
6670834086,10,-55,-11,4,7,4,9,3
6670834086,-36,-2,-4,22,10,6,7,-14
6670842975,49,86,31,70,-1,11,9,19
6670842975,-17,-39,-55,-20,8,-5,11,-3
6670848971,20,50,49,11,10,3,-36,-1
6670848971,-10,-45,-42,-15,-25,-12,3,2
6670864015,-13,69,-38,-37,2,-6,0,-13
6670864015,9,-11,22,39,0,-29,-98,-2
6670871650,23,65,-4,-6,-12,43,115,21
6670871650,-1,-56,-12,17,8,-5,-68,6
6670886491,-14,-31,-2,-4,-6,-7,-91,-10
6670886491,-11,8,2,-13,-5,2,66,-6
6670894056,-7,-53,-4,-19,-10,-28,-53,-10
6670894056,0,-31,0,27,21,15,20,6
6670902946,-7,-59,-27,-24,-12,0,10,-9
6670902946,26,12,15,15,25,11,10,2
6670909069,-16,-32,-5,11,12,-14,-33,-4
6670909069,-10,-30,-6,-22,-27,-13,25,-7
6670923868,-2,-9,-10,24,23,-14,1,-3
6670923868,3,6,0,4,-24,39,6,4
6670931466,-1,-6,11,1,-1,-21,-1,0
6670931466,-2,-2,-13,-27,-5,-1,-5,-5
6670946479,-14,-10,3,-7,9,0,10,-6
6670946479,11,39,24,18,-24,-4,3,10
6670954051,-9,-13,-27,-30,2,3,-6,-7
6670954051,0,11,-1,-14,6,4,-6,1
6670962918,-4,-5,-9,5,-20,5,6,3
6670962918,-13,0,-11,-11,14,-7,16,-4
6670969076,11,12,0,-25,-9,-6,-35,5
6670969076,2,7,9,-4,12,2,11,-1
6670983921,6,14,3,-4,-25,0,23,6
6670983921,-5,24,5,55,14,-2,-15,-7
6670991628,-1,25,-19,-45,0,-10,5,-1
6670991628,-12,19,-10,-29,-17,3,1,-5
6671006518,3,18,8,5,3,3,10,1
6671006518,12,12,6,-19,7,-3,6,4
6671014023,-15,-10,9,20,-1,4,-1,-5
6671014023,-1,-21,-9,-4,-8,1,10,1
6671022918,7,-32,-8,-2,4,-3,3,0
6671022918,-2,-31,-2,20,-20,-10,-3,-1
6671037281,2,-18,-1,-23,3,2,6,-1
6671037281,3,-15,-10,-20,-5,-4,-3,-5
6671044049,-18,-33,2,-13,-10,0,1,-2
6671044049,8,8,2,-5,3,-2,2,4
6671051452,-7,3,9,24,-9,0,2,-9
6671051452,1,-10,-9,0,-4,-4,4,1
6671066541,9,-10,-5,5,6,1,-20,-2
6671066541,-2,22,15,6,-8,-5,-27,4
6671074110,-21,-29,6,12,4,9,18,-3
6671074110,2,-18,-15,4,9,-2,3,-1
6671082968,0,2,-8,3,-1,-5,3,-8
6671082968,5,4,-8,-11,-2,2,10,1
6671097243,3,-1,-1,10,5,2,-41,7
6671097243,21,-12,22,20,18,5,28,3
6671104020,-16,-8,-26,-10,2,-2,-4,3
6671104020,1,-3,1,-7,-6,3,-29,0
6671111559,4,-2,9,8,-2,-1,-2,-3
6671111559,-2,-11,4,2,4,-1,3,-1
6671126588,8,5,-9,-3,1,5,6,0
6671126588,-16,-3,4,5,7,0,5,-3
6671134056,5,6,2,10,-1,3,6,1
6671134056,-5,-13,-10,-14,-9,-18,-31,-6
6671142906,5,-7,1,3,0,9,14,-2
6671142906,-5,-16,-6,-11,-1,-5,5,-1
6671157234,-8,-14,1,6,0,-3,-5,-8
6671157234,0,15,0,2,-5,-13,22,4
6671164086,0,-13,-1,-6,0,6,1,-5
6671164086,-3,-5,12,5,10,16,5,5
6671171551,-3,11,-9,-7,-9,-15,0,-4
6671171551,0,5,-3,12,0,1,-7,-2
6671186600,8,15,14,14,1,-2,6,2
6671186600,-2,8,-4,-14,-2,-4,-3,-8
6671194060,-7,24,-8,2,-7,-5,5,-2
6671194060,0,36,9,-5,-2,4,-2,4
6671209101,-22,-14,-13,4,5,-1,-7,-6
6671209101,26,76,20,4,2,1,9,3
6671217258,-43,-81,-1,-7,-10,-7,-8,-13
6671217258,3,21,-25,5,2,3,2,-2
6671232132,5,-4,9,-1,-4,-1,-7,5
6671232132,-12,13,-15,-3,-4,-6,7,-4
6671232984,47,107,11,7,4,4,1,8
6671232984,-15,-69,48,29,-5,2,-1,-6
6671246424,-37,-51,-97,-72,-6,-13,-9,-15
6671246424,8,19,37,15,7,9,9,6
6671254086,5,-77,-9,-2,-3,-3,13,5
6671254086,-3,13,-14,25,19,14,-29,9
6671269055,30,89,27,7,-2,-8,1,6
6671269055,-38,-45,-20,-2,-12,-12,-3,-15
6671277233,28,-36,29,-14,-11,-4,10,0
6671277233,20,82,21,-19,-5,-6,-25,0
6671292120,-13,-6,-4,35,3,-3,-6,1
6671292120,44,-68,-68,-4,8,6,18,9
6671292976,2,95,32,-28,-15,-2,0,1
6671292976,-59,-62,-23,-2,20,16,28,-2
6671306558,-13,9,-16,-18,-11,-9,-8,-17
6671306558,15,22,39,11,-1,3,-4,7
6671314107,17,-27,-38,15,-11,-4,1,-2
6671314107,11,4,9,-63,-25,-9,4,-1
6671328978,25,36,36,65,21,13,5,12
6671328978,-27,-13,8,10,28,8,4,-4
6671337258,-28,-46,-19,-16,-4,-9,-29,1
6671337258,-11,50,-22,-2,-13,-15,-2,-13
6671352240,-5,-32,-16,-37,-9,4,3,-3
6671352240,22,9,-1,-8,-16,-12,-8,1
6671352940,-11,22,-12,-26,19,-5,0,-6
6671352940,-1,-27,-4,26,2,3,-18,-3
6671366497,3,-36,7,-1,-2,2,25,7
6671366497,-14,16,3,-1,-4,-10,9,-10
6671374080,-5,5,5,22,-10,8,3,3
6671374080,9,-49,-10,-13,19,9,-4,-3
6671389083,-2,46,21,2,3,2,-37,6
6671389083,-17,-27,-3,-10,-15,-11,-3,-5
6671397207,-3,-30,-7,22,8,1,16,4
6671397207,3,5,-4,-6,0,3,-8,-2
6671412228,11,-24,13,-4,-23,-1,-4,-8
6671412228,4,13,-1,3,9,1,-4,2
6671412924,2,23,-9,-19,-11,-15,7,-1
6671412924,2,2,0,13,-12,-12,1,2
6671426555,-23,-12,4,-4,1,-2,8,-2
6671426555,-12,-5,-7,-21,4,7,3,-3
6671434049,6,15,4,9,6,4,-1,-1
6671434049,7,12,1,-13,-8,7,9,2
6671449099,-5,-9,1,14,23,-12,4,-2
6671449099,8,8,2,11,-19,1,-6,0
6671457239,-10,25,1,-1,-8,-7,-11,-5
6671457239,-6,-5,-4,5,25,3,0,-1
6671472187,5,3,5,3,3,-4,-9,-1
6671472187,-5,13,3,-9,-31,-10,5,-1
6671472923,5,9,8,-1,6,18,-11,1
6671472923,-8,-13,-13,12,7,-14,3,-3
6671486483,3,13,6,3,-1,5,8,2
6671486483,-1,-3,-1,-13,3,-5,-5,-3
6671494058,-3,-7,-3,12,-13,-1,7,4
6671494058,-3,-8,-3,-14,8,5,-3,-3
6671509057,2,7,-6,-20,-5,-7,0,-6
6671509057,12,7,9,18,14,0,20,5
6671517218,-2,-8,-9,14,0,1,-2,-2
6671517218,3,4,12,-10,-11,-8,0,-1
6671532290,-6,-19,-4,12,-10,-12,-4,-7
6671532290,-4,-7,-8,4,3,1,-11,-2
6671532908,-5,-9,3,-7,-3,-14,-4,-4
6671532908,2,11,13,8,0,10,9,-1
6671546562,-6,-4,-10,-32,-6,7,3,3
6671546562,3,-4,-2,-6,-6,0,-7,-2
6671554022,-7,-11,3,0,13,4,-1,-1
6671554022,15,10,1,-6,-16,-4,7,1
6671569077,2,18,12,23,6,-2,-6,2
6671569077,-19,-8,11,-3,1,1,0,-6
6671577265,3,9,1,2,7,9,23,1
6671577265,-6,-16,-9,2,-11,-9,-34,-7
6671592107,7,-13,1,-1,0,5,28,5
6671592107,8,0,-6,1,5,-3,0,0
6671593079,-7,-2,-1,1,1,-1,-10,1
6671593079,-4,-10,1,-2,-6,5,-1,-6
6671606467,-3,-7,-3,-2,4,1,11,0
6671606467,-3,1,-11,-4,-5,-14,-16,-5
6671614030,9,5,7,5,6,17,15,1
6671614030,1,5,-5,-7,-3,-8,-2,4
6671629097,-9,3,-2,-3,-2,2,-1,-5
6671629097,-1,-21,-9,8,2,-5,10,-4
6671637256,3,-13,-3,-2,3,12,33,7
6671637256,7,9,-4,-3,-3,-6,-3,0
6671652187,-5,3,-3,1,-4,-3,-14,-4
6671652187,5,8,-1,-3,1,-5,8,5
6671652943,-4,-4,2,4,0,4,-16,-5
6671652943,-8,6,-11,-14,-5,1,8,2
6671666529,1,7,4,14,-3,-4,-2,-2
6671666529,-3,11,0,-4,-3,4,-10,-3
6671674052,-15,-57,-20,-15,-5,-11,-9,-10
6671674052,37,63,30,10,1,2,3,12
6671689044,-46,-35,-40,-13,-5,-7,-9,-13
6671689044,9,3,5,-16,5,6,-1,7
6671697190,-19,89,-20,-2,1,1,-6,-6
6671697190,33,10,21,7,-1,-3,7,3
6671712143,-18,-83,-1,17,9,5,-2,-6
6671712143,44,59,7,-22,-2,3,-2,9
6671713090,-43,-70,-22,-41,-10,-11,-13,-14
6671713090,-10,-4,26,1,-4,-1,0,4
6671727907,37,21,-19,18,-4,-4,6,3
6671727907,-24,-28,85,10,0,3,-12,-5
6671734060,28,-9,14,23,7,9,-9,10
6671734060,-16,41,-78,-34,-9,-7,-9,-3
6671748972,13,-17,63,23,10,15,17,8
6671748972,7,39,-32,-16,-7,-1,-10,-9
6671757270,0,-20,-29,1,-9,-17,-10,-7
6671757270,1,-52,33,-18,-3,4,-3,3
6671772203,3,-15,58,27,-7,-7,-6,2
6671772203,-30,-9,-87,-24,-4,4,36,-2
6671772931,7,35,1,30,27,5,-14,-2
6671772931,-19,3,-28,35,-2,-9,-17,-5
6671786530,16,49,28,-7,0,-19,-15,-3
6671786530,-20,-9,-32,-15,-7,19,8,-1
6671794052,15,-31,27,9,-1,-9,5,1
6671794052,-5,-3,22,-5,3,0,-38,5
6671809077,16,70,-8,-57,-10,7,10,6
6671809077,-31,-5,-19,15,-3,-21,-24,-21
6671817214,17,36,1,-3,-5,5,9,4
6671817214,-14,-30,20,43,6,3,18,3
6671832199,-3,-10,-2,26,-9,-9,1,5
6671832199,-7,-73,-11,-35,18,6,-37,-14
6671832966,3,-25,-11,12,17,4,4,5
6671832966,3,8,1,-3,-34,4,26,1
6671846497,-6,-24,-30,-21,-4,-4,-11,-18
6671846497,13,-3,17,18,-9,-5,38,13
6671854058,1,3,40,33,-11,-5,-18,2
6671854058,-15,-9,-38,-48,5,-9,-1,-11
6671869003,-5,6,-35,-17,8,11,14,5
6671869003,7,3,29,9,-17,-19,-29,-8
6671877127,-2,-5,-1,-15,-13,-1,11,3
6671877127,-14,-17,-2,22,-3,13,16,-8
6671892211,-7,7,8,-1,-6,-8,-22,-9
6671892211,-1,1,-9,-42,0,2,1,3
6671892972,4,24,2,-3,-14,-3,12,2
6671892972,2,2,1,13,30,9,4,-3
6671914704,1,34,-7,24,1,0,-14,0
6671914704,-1,12,3,7,-5,1,3,0
6671915391,11,44,-7,-26,-5,-24,-8,-2
6671915391,-12,9,4,-12,-18,-4,-10,-13
6671928864,4,-8,-5,21,-15,-14,10,6
6671928864,0,6,6,41,29,18,-7,5
6671937174,-13,-26,-12,-52,1,15,3,-11
6671937174,12,-2,-10,29,29,-14,-4,-2
6671951541,-10,-24,-15,-28,-22,-9,-7,-7
6671951541,6,-17,-6,-2,1,-10,2,2
6671959580,-16,-3,4,-4,-10,-6,-4,-4
6671959580,3,-30,-4,3,3,14,10,2
6671966586,4,-9,-14,-5,-4,-2,-6,5
6671966586,13,13,-3,-18,-9,-15,-11,-4
6671974018,-5,4,3,24,4,-4,-6,-3
6671974018,-2,13,9,-24,0,6,11,-1
6671989079,-2,2,6,8,22,13,2,1
6671989079,-5,-8,8,14,-6,5,15,3
6672004681,3,-6,-7,-7,-1,-4,-9,1
6672004681,6,-3,-2,0,0,8,8,3
6672011463,1,14,0,-12,-1,-7,-8,-6
6672011463,0,5,16,25,-2,-3,-2,0
6672019636,-6,9,14,6,1,2,2,-3
6672019636,-3,-21,-12,-12,-4,-9,-14,-2
6672026534,3,4,7,-4,10,16,31,6
6672026534,-6,-35,-8,-5,-6,-7,-6,-2
6672034057,8,-6,-3,9,10,9,10,3
6672034057,-13,-21,-8,-8,-10,-17,-22,-11
6672049091,-10,-20,-5,-11,4,12,-4,-2
6672049091,-2,5,4,11,-5,-6,-9,-2
6672057243,6,-2,7,2,1,7,21,-1
6672057243,-3,-9,-4,-8,-6,-13,-8,0
6672071494,-6,-16,-7,-7,-2,-5,-5,-7
6672071494,10,-7,1,4,4,4,16,-1
6672079626,-2,18,-2,-5,-4,-5,-8,2
6672079626,1,11,1,0,2,-1,11,-1
6672086525,5,-18,-6,-2,0,7,-4,3
6672086525,-6,4,-1,2,0,-3,9,-3
6672094085,-8,19,-4,2,-1,9,3,2
6672094085,8,8,0,-4,-6,-8,-6,0
6672109087,-3,6,7,1,-2,-2,-6,-2
6672109087,5,10,1,-4,4,2,-2,1
6672117269,-11,-23,-19,-7,-2,-4,-9,-2
6672117269,21,34,5,4,2,7,9,5
6672131510,-6,28,6,12,-4,-17,-6,-7
6672131510,6,-63,13,17,2,10,-4,9
6672139745,-18,-7,-70,-39,-5,-3,-6,-10
6672139745,39,81,13,1,-4,1,13,9
6672154677,-21,44,-10,9,-1,-13,-8,-14
6672154677,-6,-33,-13,-17,-6,2,5,10
6672155331,10,-8,78,64,12,2,-3,2
6672155331,-5,-37,-27,-28,5,8,5,4
6672169077,-24,82,-43,-45,0,4,3,-7
6672169077,-5,-5,27,-6,-1,4,-18,-8
6672177221,49,68,-3,-6,-14,-10,-10,10
6672177221,-4,-118,0,5,-2,-11,-12,-6
6672191504,-1,1,25,21,2,3,-3,7
6672191504,-14,-9,-23,3,2,3,4,-3
6672199700,-51,-31,-29,-41,-9,-6,-4,-16
6672199700,-7,37,64,27,-6,2,4,3
6672214676,30,40,27,14,-2,2,34,18
6672214676,-23,86,-48,-23,15,9,-20,-9
6672215419,17,-62,-7,14,9,-1,-8,-10
6672215419,-10,31,-16,-33,-8,-7,-21,2
6672229003,23,-6,14,25,0,2,9,2
6672229003,-14,6,9,-5,5,0,6,-4
6672237146,-15,11,26,31,-14,-4,3,8
6672237146,1,-5,-41,-23,16,0,-3,-14
6672251573,1,17,25,42,5,4,-32,2
6672251573,7,-47,-36,-21,-13,-7,22,3
6672260389,-9,50,36,29,11,5,-11,-8
6672260389,-11,-2,-7,20,0,-1,32,6
6672274035,14,-38,-18,-20,-1,0,-9,-1
6672274035,-7,-11,29,-2,-9,-10,-7,-5
6672282908,1,-34,-15,9,6,2,-32,5
6672282908,-3,-50,0,23,5,-2,11,-2
6672288990,-4,-28,-8,-8,-1,15,-7,0
6672288990,11,-23,-3,1,3,-4,3,3
6672297915,-16,-36,-15,-17,-11,-1,9,-8
6672297915,-5,-53,-2,-8,7,7,14,1
6672311455,-1,-28,-2,-5,-4,-13,-42,-4
6672311455,-10,0,1,2,-8,-6,18,-5
6672320390,23,9,5,-2,-9,-6,15,8
6672320390,-21,9,1,31,-17,-7,-17,-6
6672334077,-18,-51,-26,-37,17,10,15,-8
6672334077,12,19,12,29,-13,-2,-3,3
6672342935,15,7,-6,-35,3,0,7,5
6672342935,0,20,8,23,-5,3,-5,0
6672349083,-4,-6,-15,-20,-8,-1,2,-3
6672349083,-2,23,2,17,-6,-1,-10,-4
6672357917,7,29,-6,3,4,-18,0,-1
6672357917,-4,16,7,-10,-7,5,-7,-5
6672371564,-10,-9,-10,-13,10,-3,9,-4
6672371564,13,36,-9,-1,3,-10,-12,5
6672380355,8,14,5,0,2,16,2,1
6672380355,-5,21,6,-10,13,-5,0,-1
6672394068,11,15,-2,4,-2,7,6,0
6672394068,-8,-6,23,4,17,9,4,1
6672402923,0,-16,-30,-28,-14,-7,1,1
6672402923,-20,-14,2,-29,-17,-10,-17,-9
6672408962,8,-1,28,33,5,9,13,7
6672408962,-6,-20,-30,-35,-17,-9,-11,-6
6672417916,-2,9,4,-23,-5,-16,-3,-6
6672417916,14,2,0,23,12,23,4,3
6672431477,-4,-11,2,7,-8,-9,8,-1
6672431477,-1,-2,-2,1,5,5,1,1
6672440348,-12,-11,10,-10,-6,2,-2,-2
6672440348,0,-7,-8,12,0,-10,-6,-3
6672454056,3,-7,-3,-14,2,-1,1,3
6672454056,-4,10,16,7,4,-1,-6,-4
6672462921,-2,-8,-7,-12,0,12,8,5
6672462921,4,17,6,-3,-4,-5,-2,4
6672469113,-16,-17,-5,-5,2,-3,-3,-2
6672469113,7,-1,-1,-9,-1,12,5,2
6672477888,1,-6,-3,19,3,-9,-6,-1
6672477888,-9,-12,-7,-6,-1,1,6,-6
6672491390,10,-12,0,-4,-5,-4,-11,6
6672491390,0,-4,-1,7,-3,-4,-8,-4
6672500414,-5,-7,2,3,4,2,5,-3
6672500414,-1,-21,-5,-9,-2,-6,0,-1
6672514053,-3,-3,-11,-4,3,3,2,-2
6672514053,0,25,11,11,1,-2,4,0
6672522914,1,6,0,6,3,2,-9,0
6672522914,2,0,-12,-20,-6,-1,-7,0
6672529022,2,3,1,-1,-6,-3,1,0
6672529022,1,-5,-2,-1,-2,-1,-6,-4
6672537910,0,-19,4,5,8,5,9,0
6672537910,0,17,6,-6,-8,-7,-6,0
6672551461,8,3,0,-3,-2,-7,-6,1
6672551461,10,3,-4,5,1,-4,2,0
6672560395,2,8,2,-6,-5,2,3,-3
6672560395,-19,45,0,-4,1,-2,0,3
6672573985,-22,-34,-18,-10,-10,-9,-12,-11
6672573985,33,20,10,2,-1,1,1,7
6672582896,6,24,-5,-3,-3,-1,-8,0
6672582896,-1,50,12,10,20,18,13,1
6672589106,-18,9,-14,-3,-6,-9,-5,-12
6672589106,-26,21,0,3,-1,-3,-8,-14
6672597893,-17,-34,-4,0,-7,-2,-3,5
6672597893,56,32,8,0,-11,-8,1,9
6672611410,15,-40,-8,-13,6,5,3,9
6672611410,-75,-48,-17,-39,-20,-12,-17,-25
6672620417,-9,45,26,81,15,13,17,1
6672620417,-9,-36,-39,-48,-2,-6,-12,-4
6672633986,-5,42,-6,19,0,-5,4,-5
6672633986,42,-36,3,-17,-6,-2,9,18
6672642927,9,-34,19,20,4,4,1,-6
6672642927,-8,-17,0,10,15,12,2,4
6672649031,40,111,38,6,1,4,-17,8
6672649031,-21,-41,27,45,6,2,9,0
6672657926,1,17,-16,-33,-5,-9,-5,-8
6672657926,17,7,-6,-10,-14,-12,-27,-4
6672671541,-11,-71,-15,-17,-6,-3,7,0
6672671541,15,68,1,5,4,2,3,7
6672680391,-19,-81,-18,-9,-3,-1,-6,-8
6672680391,-27,11,-14,-5,-2,3,-4,-6
6672694057,-1,-7,-12,-1,-16,-7,-4,-8
6672694057,7,34,19,-4,4,5,-21,10
6672702952,11,15,-24,-10,1,2,14,3
6672702952,12,56,51,9,11,3,11,2
6672709034,-20,-42,-42,-57,-3,1,-13,1
6672709034,28,72,27,-14,-18,-4,-1,-3
6672717898,-10,-46,-19,2,21,3,2,-6
6672717898,-8,-47,-4,14,-20,-14,7,1
6672731469,18,36,28,53,15,2,-15,-4
6672731469,-3,-51,-4,-61,-12,-3,6,-3
6672740389,-4,-32,-18,-24,0,-4,-9,3
6672740389,-12,-64,-18,12,-9,-3,6,-8
6672754052,-6,-30,15,-18,2,0,10,4
6672754052,10,7,-29,22,9,5,4,-3
6672762916,-20,-15,4,2,-5,2,11,2
6672762916,11,-1,1,-3,3,-5,-10,-1
6672768977,-24,-14,-11,-18,-14,-7,7,-6
6672768977,-1,-21,-1,2,2,10,0,1
6672777917,4,0,9,7,0,-5,9,-2
6672777917,1,-6,2,17,0,-1,-1,-3
6672791539,-1,12,13,9,-5,-1,0,-1
6672791539,2,-29,-26,3,20,2,0,0
6672800350,5,36,2,-12,-22,-14,-14,0
6672800350,-8,5,9,5,-11,1,-6,-7
6672813952,9,14,-5,2,19,16,21,7
6672813952,-16,-21,-9,5,5,-2,-3,-3
6672822912,4,21,-8,-19,0,5,-2,2
6672822912,3,-6,-19,-24,-39,-15,-8,-6
6672829057,-14,7,5,35,26,10,-6,-4
6672829057,-6,13,-1,12,13,-2,15,3
6672837896,17,62,-12,-31,-10,-8,-14,-2
6672837896,-15,-17,11,27,-1,1,-1,-4
6672851534,11,-7,11,8,-21,-15,-7,-4
6672851534,-3,-3,-4,7,-12,-3,-1,1
6672860354,3,4,2,-22,35,3,-4,-2
6672860354,-4,-12,-13,-29,-21,-8,-2,1
6672874583,-7,-17,10,-20,-8,-13,-4,-8
6672874583,-3,7,20,51,19,12,4,2
6672881445,4,-15,11,7,-8,-5,-7,0
6672881445,-7,-15,8,-5,23,20,8,1
6672889081,10,12,16,38,-6,-12,-1,3
6672889081,-3,-8,-29,-48,-16,-3,-8,-1
6672897918,2,9,5,25,-2,-3,-2,0
6672897918,-12,-5,-13,-24,3,-6,-2,-7
6672911490,4,3,-13,6,-7,-6,-1,2
6672911490,-4,-8,8,14,0,-4,-5,-4
6672920290,2,1,-3,0,-9,7,5,3
6672920290,2,-3,-7,-2,11,2,2,3
6672934668,-2,-10,1,-15,-2,0,-2,-4
6672934668,-3,-7,-1,-9,-10,-11,-17,-8
6672941369,-12,-23,-11,-11,-6,1,-2,-2
6672941369,15,-1,12,24,8,-2,3,6
6672948982,-14,-15,-4,-14,4,10,4,3
6672948982,6,-2,-5,-2,-5,-5,-5,0
6672957834,5,16,9,8,-9,-7,-1,-3
6672957834,0,-2,-2,0,4,0,10,-6
6672971500,0,-11,-9,-4,-1,2,9,4
6672971500,2,-22,-12,-4,0,-1,-4,3
6672980375,0,1,8,0,-5,-7,-6,-2
6672980375,6,-1,1,3,8,6,7,2
6672994711,-17,-3,-7,-13,0,0,-13,-7
6672994711,1,9,-1,4,-2,-3,17,0
6673001403,-10,4,7,2,-7,1,-3,-2
6673001403,-1,-12,-17,-9,-1,-3,-12,0
6673009004,19,6,0,-1,-4,-1,2,3
6673009004,-8,9,4,3,3,-1,-4,-1
6673017812,0,-6,-12,-17,-2,-1,-8,1
6673017812,-12,-6,3,14,3,-2,1,-3
6673031509,18,11,3,5,-1,-2,21,2
6673031509,-7,17,0,-3,0,6,3,0
6673040367,-5,-4,0,-10,-3,-1,-17,-4
6673040367,2,23,5,4,0,2,4,-1
6673054713,7,4,2,0,-2,0,-3,5
6673054713,1,-32,-1,1,-3,0,5,5
6673061446,2,38,-2,-5,-1,-1,6,-6
6673061446,3,-17,20,19,-4,-3,-6,7
6673077859,-23,81,-9,-30,0,3,3,-10
6673077859,15,-3,0,-6,0,-5,4,2
6673079337,-11,4,12,26,17,9,8,3
6673079337,42,-78,-6,25,1,0,0,5
6673091535,-32,109,10,-16,-7,-5,-3,-4
6673091535,-19,51,5,-27,-20,-11,-25,-8
6673100361,18,-59,-6,2,5,8,13,2
6673100361,-7,29,-17,-44,-13,-12,-28,-7
6673114573,27,36,25,45,21,14,16,12
6673114573,-19,59,-29,-8,-15,-6,-19,-17
6673121456,57,109,46,34,-11,2,0,20
6673121456,-37,5,-30,-17,26,9,8,-15
6673137798,-53,-128,-40,-33,-12,-7,-20,-16
6673137798,15,53,34,42,-4,-5,7,9
6673139320,-32,-36,-52,-40,-3,-2,8,-6
6673139320,43,90,49,-3,-10,-4,9,9
6673151486,7,48,-9,17,5,0,-14,-7
6673151486,9,-37,5,52,-2,-3,-2,2
6673160389,-22,-19,-28,-72,-7,-6,-6,-3
6673160389,-4,28,7,22,3,2,0,1
6673174712,-6,-86,15,-9,-2,-1,-2,1
6673174712,13,16,-15,-53,0,6,3,0
6673181434,-9,-19,12,-3,-7,-10,-14,-5
6673181434,-13,-18,-37,-32,4,-2,28,-4
6673197769,14,-28,-16,1,-2,3,2,6
6673197769,-10,-47,3,8,-4,-7,-8,-2
6673199355,-8,-53,3,8,-4,1,-7,-9
6673199355,-29,-17,14,-3,1,1,-2,-1
6673211461,17,-34,-9,17,17,-1,-2,1
6673211461,-4,-65,-14,-7,16,17,21,-5
6673220356,1,26,-6,5,3,-2,0,2
6673220356,12,-23,-2,8,-21,-13,-23,0
6673234668,-9,-4,-8,-5,-9,-12,-18,-6
6673234668,5,-10,-11,3,0,-2,-16,11
6673241428,2,6,21,19,8,4,13,0
6673241428,-14,-16,0,24,-6,-1,-10,-10
6673257723,4,2,-7,-71,-3,0,5,-1
6673257723,-1,5,-7,-7,3,-6,0,-3
6673259320,2,-13,-3,26,-12,2,-8,-2
6673259320,-10,-4,-8,-1,12,4,3,2
6673271495,2,4,18,26,2,-1,-6,-2
6673271495,4,7,10,-9,-13,4,4,-3
6673280289,-4,-5,-5,-3,5,-2,9,3
6673280289,10,13,-16,-16,-25,-16,-5,2
6673294665,-6,23,14,21,10,19,7,-4
6673294665,7,1,7,-3,0,-9,4,6
6673301347,-2,38,19,29,27,5,2,-6
6673301347,-8,22,0,-23,5,16,8,7
6673317807,0,-1,-9,-9,-23,-33,-11,-1
6673317807,3,-1,-2,-2,9,8,2,-2
6673319318,-6,0,-4,13,-24,-13,-12,-3
6673319318,-8,-9,14,6,18,11,6,0
6673331448,4,-9,-1,-9,-10,-2,0,-2
6673331448,-13,-1,8,-5,-1,-4,5,-3
6673340345,0,-9,-6,-4,-6,-10,-3,-2
6673340345,12,2,0,9,2,3,0,3
6673354681,-6,-16,-9,1,-4,-3,2,-4
6673354681,-3,-15,0,11,17,2,0,-2
6673361460,2,-7,4,-12,-1,9,5,3
6673361460,6,-11,-8,17,4,-6,2,-1
6673377820,3,12,1,32,-6,-4,-3,0
6673377820,-16,-15,0,-25,-8,-2,-3,-8
6673379340,-5,-12,-7,-18,7,4,-6,-4
6673379340,2,4,1,13,-8,-9,6,-1
6673391461,5,11,10,-3,-2,2,3,0
6673391461,1,10,6,10,1,-3,-3,-1
6673400315,11,-3,-2,10,-1,0,6,3
6673400315,-8,-11,-14,-19,-10,-3,-2,-2
6673414605,6,-6,13,23,12,11,-6,1
6673414605,4,-2,-17,-12,3,-4,-1,0
6673421486,-4,-9,-3,-7,-1,4,4,-1
6673421486,-18,-5,5,5,3,0,-16,-5
6673437835,3,-5,-2,-12,-9,-3,-3,-2
6673437835,7,2,0,6,-5,-5,24,4
6673439341,12,-2,11,8,-1,-1,7,2
6673439341,-22,36,-19,-5,13,7,1,2
6673451460,-1,-6,12,4,-9,-2,6,-4
6673451460,-2,-21,2,-3,6,3,-9,-2
6673460390,-19,-9,7,7,-4,-4,-3,-2
6673460390,13,-14,8,-11,-17,-15,-10,-6
6673474683,-4,-1,-41,-10,0,1,0,2
6673474683,-10,7,7,16,15,13,4,-3
6673481389,4,6,-4,-3,3,3,-2,2
6673481389,10,-6,7,5,1,-2,0,-1
6673497814,13,-7,-3,-17,-12,-4,-2,5
6673497814,-17,14,1,-1,-13,-7,-29,-3
6673499318,4,14,-2,0,2,-1,6,3
6673499318,-6,-21,-20,-12,-4,-4,-8,-1
6673511482,-7,2,-2,1,2,-2,-3,-5
6673511482,10,17,-4,4,0,0,4,1
6673520313,-3,-1,2,-3,-3,-2,-8,-4
6673520313,16,7,9,2,0,0,0,0
6673534602,-12,19,3,-5,0,-1,3,-1
6673534602,-13,-12,-12,0,-2,0,3,-4
6673541490,28,20,3,-7,-8,-6,-12,0
6673541490,-47,10,8,6,1,2,7,-2
6673557768,13,2,-25,-12,6,3,1,0
6673557768,0,-13,13,3,-6,-2,-4,1
6673559291,-26,-1,-23,-18,-8,-5,0,-4
6673559291,29,-6,4,22,10,5,-1,0
6673571461,-11,39,4,-7,1,2,1,1
6673571461,29,21,14,-3,-5,-8,-4,3
6673580368,-27,-86,-56,-43,-9,-5,-10,-12
6673580368,-1,8,16,17,6,11,30,2
6673594667,-11,18,3,-6,-2,-2,-17,-5
6673594667,-4,1,-18,15,-3,0,4,-3
6673601357,-28,0,-8,-15,-4,-14,-14,-10
6673601357,15,-32,2,-20,-9,-8,-4,-1
6673617812,-2,32,10,11,4,1,4,3
6673617812,15,5,-6,-20,-6,2,7,6
6673619340,-19,16,3,20,13,5,-7,-3
6673619340,10,48,2,-15,-9,-5,-6,1
6673631382,29,2,20,14,7,2,-22,5
6673631382,-9,-13,-10,-9,-12,-13,-14,-14
6673640343,31,97,25,-7,-1,12,54,16
6673640343,-9,-11,-4,21,11,3,-31,2
6673654658,-14,-58,-3,-2,7,1,-16,-11
6673654658,-35,11,-8,-12,-3,0,14,-5
6673661481,1,-19,12,20,-3,1,-15,3
6673661481,9,8,-9,-4,-17,-14,3,-7
6673677772,-1,-77,-26,5,4,-6,15,-3
6673677772,26,19,0,-4,1,-6,-34,6
6673679291,-21,-41,7,-2,-9,6,5,-10
6673679291,-4,-63,-20,-16,5,4,-1,0
6673691450,1,0,2,11,6,0,-6,-1
6673691450,-1,-39,2,2,-8,-6,5,0
6673700317,18,8,11,12,-7,-7,-5,6
6673700317,-19,8,8,-12,-1,0,-1,-10
6673714621,2,-14,-11,-13,-7,-6,-1,1
6673714621,-5,-37,-6,12,15,7,10,-2
6673721450,6,17,14,7,-2,-6,-10,-1
6673721450,11,24,-7,-10,-6,-2,0,-5
6673745243,-7,-7,-3,8,-5,0,22,-2
6673745243,8,3,-1,-2,2,-1,4,7
6673746746,-7,-11,3,23,8,6,3,2
6673746746,0,-14,-12,-22,-5,-1,-1,-1
6673751439,-26,6,7,-1,-4,-10,-10,-8
6673751439,4,4,8,4,7,8,-1,2
6673760315,10,16,-9,2,-3,-4,-39,-2
6673760315,2,-5,-1,5,11,4,6,1
6673774594,12,19,4,-18,-22,-3,4,5
6673774594,-9,2,-13,-6,-1,-12,-3,0
6673781372,4,-9,9,8,-4,2,0,-6
6673781372,1,7,2,-12,31,12,6,6
6673797777,-7,-11,1,16,-8,0,-3,-3
6673797777,-11,9,5,-17,1,-1,-4,-4
6673799315,16,28,-14,-12,-31,-12,5,3
6673799315,-20,-3,8,32,11,2,-2,-2
6673811430,8,14,-8,17,-1,-6,4,0
6673811430,10,11,16,15,6,3,1,-3
6673820354,5,-3,6,10,14,-3,1,2
6673820354,1,10,-3,-21,-11,10,4,4
6673834672,6,-3,16,-4,9,8,8,5
6673834672,-7,-11,-7,-44,-13,-8,-3,-3
6673841405,2,-4,-13,-3,15,2,8,1
6673841405,-3,1,17,5,-17,-13,-15,-4
6673857135,-19,-32,-11,2,-3,7,8,-4
6673857135,3,3,-15,-11,-5,-11,-8,-2
6673863858,11,20,22,-5,-1,-2,7,3
6673863858,-5,-15,-6,-6,-3,-4,-5,-5
6673871435,13,23,2,2,-3,7,6,7
6673871435,-21,-6,-10,2,-5,0,-11,-7
6673880342,-13,-22,-11,-12,5,6,8,-3
6673880342,13,18,8,27,-6,-1,6,5
6673894676,-1,-3,-12,-27,1,-6,-10,-4
6673894676,4,9,11,29,1,3,4,2
6673901366,-12,-22,-9,-15,6,0,1,-8
6673901366,4,3,-4,-4,-6,-5,-14,0
6673917091,-18,2,3,-4,10,11,20,-1
6673917091,5,-2,13,6,-3,0,14,3
6673923832,1,-12,7,19,4,2,6,1
6673923832,-7,-22,-6,-4,-2,-2,6,-3
6673931375,14,-6,-8,-6,6,-2,-9,4
6673931375,-12,-34,-4,7,-3,3,6,-5
6673940350,4,-9,3,2,1,-3,2,-3
6673940350,-3,3,-5,0,-3,-7,-32,1
6673954653,0,6,15,0,1,-10,-7,2
6673954653,4,1,-4,-2,-3,14,7,-2
6673961356,6,-8,-7,-14,2,-3,-6,1
6673961356,-10,-11,-4,3,-3,-2,3,-6
6673977164,3,-7,0,0,-9,-6,-3,-4
6673977164,-11,-3,-10,-7,0,-4,-12,5
6673983954,-8,2,-4,-8,-7,-7,-13,-5
6673983954,14,18,7,5,-1,0,8,2
6673991441,-3,5,1,-4,0,0,-2,-1
6673991441,2,5,-23,-5,0,4,9,2
6674000359,-5,14,8,1,-3,2,4,-1
6674000359,-1,-14,-11,-14,-5,-6,3,-3
6674014631,-11,20,3,-13,-4,0,5,-5
6674014631,21,22,20,21,0,-3,-8,-3
6674021328,-26,-22,-23,11,2,-1,2,1
6674021328,-17,-3,15,-9,-2,0,-4,-4
6674037129,17,40,-2,-4,-6,0,-3,8
6674037129,2,-67,-18,6,-5,-6,-1,-2
6674043785,-4,106,17,-11,0,-1,-4,-6
6674043785,3,-14,5,36,18,14,35,6
6674060227,4,-62,-16,26,-2,1,-23,-4
6674060227,-15,-27,-45,-31,9,-3,-6,-5
6674061785,-9,82,13,-28,-19,-9,-11,-6
6674061785,-21,-25,-3,-3,-11,-14,-4,-8
6674073931,44,36,10,2,-9,-1,10,13
6674073931,-12,0,-1,1,11,0,-1,-1
6674082897,-2,-80,-30,-35,-7,-2,-4,-6
6674082897,10,8,17,25,0,2,-3,5
6674097050,-8,-3,-33,-55,9,6,3,-3
6674097050,9,55,53,26,0,3,0,4
6674103981,0,-26,-28,-4,5,3,6,4
6674103981,6,6,35,10,-7,-6,-7,1
6674120309,3,0,-37,-7,-9,-7,-6,-3
6674120309,-13,5,17,2,9,7,12,-1
6674121798,-5,14,1,13,4,3,0,1
6674121798,2,35,-13,-6,1,0,-6,-2
6674133945,-7,13,7,15,-3,-5,0,-5
6674133945,12,28,20,23,-14,-9,-5,-1
6674142813,5,-40,-7,-18,8,1,-2,2
6674142813,-3,-52,-15,-47,-10,-13,-4,-6
6674157135,-20,-29,20,18,16,6,20,2
6674157135,8,14,-1,0,7,15,1,2
6674163880,17,-17,5,14,0,-4,-6,1
6674163880,-5,-54,-15,8,1,7,10,-2
6674180312,3,13,13,-22,-12,-12,-1,1
6674180312,-2,-25,-2,-2,-3,-1,-4,-4
6674181772,7,12,4,19,-1,3,20,5
6674181772,-5,-8,-7,-17,-1,-6,-39,-2
6674193998,-4,0,5,11,-7,-5,-6,-6
6674193998,2,-13,-10,-1,0,4,1,1
6674202777,5,-17,5,5,1,4,-2,0
6674202777,6,18,-8,-1,-6,-1,7,3
6674217180,-4,-6,4,-6,-3,-6,-9,-4
6674217180,-5,10,1,-7,-7,-9,-9,-2
6674223850,-7,-7,-1,6,5,-6,-9,-5
6674223850,-2,22,-10,-12,-2,1,13,4
6674240309,-9,-1,5,25,11,10,6,-2
6674240309,2,10,-9,-14,1,-11,-10,-3
6674241805,-5,2,4,1,-19,-6,-6,-1
6674241805,13,8,-5,18,20,0,3,-3
6674253906,-3,4,4,-26,-8,-6,-4,3
6674253906,-2,2,-11,-11,-1,6,-1,1
6674262812,-10,-13,20,32,43,-4,-1,-2
6674262812,-6,3,-29,-40,-34,9,-1,-5
6674277029,4,5,11,8,6,-10,6,1
6674277029,1,-1,5,-16,-6,-8,0,-1
6674283930,-2,-14,-14,-15,-24,-4,-2,-4
6674283930,-8,20,6,12,21,4,-1,0
6674300249,-6,-10,-8,-1,5,0,-4,-3
6674300249,-6,-11,-3,-4,-13,-4,-1,-1
6674301875,9,-17,-18,-12,-9,2,-4,0
6674301875,-7,-3,-15,-14,-14,-9,-2,-4
6674313958,-6,-25,-10,-14,4,7,-1,-3
6674313958,6,9,9,33,4,0,4,3
6674322791,-4,-2,1,-1,12,1,1,-1
6674322791,-3,-5,6,2,-2,0,-1,2
6674337086,12,22,12,25,1,1,1,3
6674337086,0,0,-4,6,5,1,2,-2
6674343968,4,-2,2,-13,-8,2,-10,3
6674343968,-4,0,-6,-5,-8,-4,-2,-4
6674360216,7,5,-16,0,-3,-2,3,1
6674360216,-13,-6,11,-13,-1,0,5,-8
6674361803,11,6,5,4,-4,0,1,3
6674361803,-6,-3,6,9,9,-4,-22,-1
6674373879,1,4,7,2,-4,5,5,-2
6674373879,-3,2,-7,-6,-4,-3,-14,-4
6674382852,-6,-1,-7,2,0,-1,6,-3
6674382852,24,26,7,5,0,-2,15,7
6674397189,-15,-31,-2,-5,-4,-12,-13,-5
6674397189,-4,-2,-3,-3,-3,-2,19,-5
6674403937,-20,-22,0,5,1,3,-29,-7
6674403937,-3,-19,4,1,2,-1,15,5
6674420370,6,3,2,-3,-5,1,4,1
6674420370,2,-8,-6,-4,-3,-19,-30,-2
6674421773,-1,-15,1,1,1,8,21,0
6674421773,-3,-5,-4,-6,-5,-2,-7,-7
6674442755,-3,-1,0,2,-1,7,-19,-1
6674442755,12,5,-5,2,1,-3,-2,1
6674444202,-2,-4,-1,0,-4,-4,-7,-2
6674444202,2,12,4,0,-3,-3,-11,1
6674457091,0,9,11,4,-3,-3,11,-2
6674457091,-13,27,-6,-3,4,11,14,8
6674463778,9,-3,-6,-10,-6,-10,-4,3
6674463778,0,21,21,25,4,9,7,-2
6674480247,-19,-33,-56,-35,-7,-10,-11,-13
6674480247,15,-54,-16,3,-1,-3,-5,0
6674481848,-32,34,25,3,-1,-2,2,-11
6674481848,27,6,6,4,-5,-2,4,10
6674493909,16,19,12,-3,-2,-5,-2,0
6674493909,-10,15,5,-11,1,9,-3,1
6674502799,-7,-38,1,12,0,2,22,5
6674502799,10,-13,-15,-20,-2,-4,-17,-8
6674517043,-29,75,33,19,12,7,1,-9
6674517043,-5,-28,-38,-33,-18,-11,25,-3
6674523807,28,54,-7,-30,2,-4,-25,0
6674523807,-24,-58,-9,28,2,2,8,3
6674540301,33,36,3,-10,-8,-4,3,3
6674540301,8,9,15,25,11,4,-4,2
6674541822,-27,3,-11,-12,-3,2,11,-6
6674541822,-2,-30,-17,-15,-5,-5,-29,-5
6674562775,-22,-9,-17,5,-9,-5,0,-7
6674562775,-8,7,28,-4,6,2,-13,8
6674564284,32,-11,8,-1,-1,9,-6,3
6674564284,-6,59,5,-1,3,-7,8,-2
6674577111,-9,-27,-1,-4,10,8,5,2
6674577111,13,-4,2,-4,-8,-9,-10,-5
6674583831,-35,33,5,24,-1,-6,7,-2
6674583831,9,85,-5,-38,-6,2,-5,-2
6674600254,6,-7,1,35,10,2,1,4
6674600254,23,38,8,0,-2,3,7,5
6674601786,6,4,-20,-6,-5,-12,-4,-1
6674601786,-23,-31,26,6,-11,-11,1,-4
6674622806,2,-88,-16,-16,-7,8,-9,-2
6674622806,0,-35,-17,-17,-5,0,12,3
6674624292,1,-66,-1,17,-8,-2,-5,-2
6674624292,5,-34,7,18,23,7,5,0
6674636407,5,-26,-3,-3,-2,-2,-27,4
6674636407,-4,27,-3,-3,-2,3,12,-2
6674645295,2,-4,3,2,-6,-12,-1,2
6674645295,3,4,-21,-15,-5,9,6,-2
6674660320,-14,-21,1,5,-1,-4,-5,-5
6674660320,4,-13,3,13,-1,-10,-7,0
6674661771,-10,-8,-3,-7,-3,9,-1,-4
6674661771,2,-8,3,8,-3,-7,-5,-2
6674682782,3,12,7,-1,-1,-9,9,4
6674682782,-17,-17,-13,-30,-15,-10,-6,-5
6674684272,13,4,9,17,31,19,14,3
6674684272,-3,15,-1,8,-1,-1,0,-2
6674696349,-7,17,7,12,-2,-6,0,-3
6674696349,-10,4,-15,-27,-11,2,-1,-2
6674705320,9,21,-4,-11,0,-15,-10,-1
6674705320,-11,-16,-4,6,-20,12,2,-4
6674720214,-8,5,-16,-6,12,-8,1,-1
6674720214,0,16,16,33,7,9,1,-1
6674721790,-8,8,6,-20,-23,-3,-1,-3
6674721790,-3,5,0,32,11,-2,0,1
6674742784,1,-5,-10,-1,-5,6,11,0
6674742784,4,-6,16,27,8,2,-4,-1
6674744317,-6,-6,-26,-37,-11,-1,1,0
6674744317,1,-9,16,18,1,-2,6,0
6674756451,5,12,2,-40,-5,-4,-1,7
6674756451,-2,10,-6,29,0,4,-1,-3
6674765260,2,-10,-3,3,5,-4,-3,-2
6674765260,1,-3,-7,-25,-2,-4,1,0
6674780262,1,20,1,-1,-2,-2,-1,-3
6674780262,-1,1,4,18,9,-2,-3,3
6674781750,8,11,11,2,-6,2,4,3
6674781750,-5,4,-10,-15,-1,-4,-6,-3
6674802756,4,11,4,10,2,-6,0,-1
6674802756,4,0,-3,-16,-3,5,-2,2
6674804253,4,1,-5,8,-2,-6,0,-1
6674804253,3,10,8,-9,2,-2,-6,2
6674816423,0,0,5,5,-3,-2,5,0
6674816423,-5,15,10,-4,2,2,2,-4
6674825288,-6,-23,-14,-5,-6,-4,-7,-1
6674825288,6,13,-3,3,10,3,3,2
6674839494,-6,-12,-4,-6,-8,1,7,-2
6674839494,-13,-17,4,-3,-2,-2,-5,-5
6674846380,11,-5,5,11,9,2,2,1
6674846380,-12,-14,-5,-12,-7,-4,-1,-7
6674862010,1,-11,3,5,-1,7,21,7
6674862010,-2,-9,-5,-7,0,-5,-7,-4
6674862728,10,22,6,-6,-4,-13,-4,3
6674862728,-16,-6,-2,8,2,6,-1,-3
6674884585,6,19,-2,-5,0,6,5,7
6674884585,5,-35,-5,-3,-5,-4,-7,-5
6674885217,-8,-3,3,-4,5,5,25,-2
6674885217,6,6,11,5,5,0,-12,2
6674898885,-6,-15,-9,-2,-2,-7,-3,-2
6674898885,11,34,3,-2,-3,4,4,3
6674906397,4,-64,-17,3,-7,-7,-13,-6
6674906397,-15,16,11,-2,7,2,3,-2
6674921897,4,-21,-9,6,-2,-1,0,-3
6674921897,-22,13,4,26,-1,-5,1,-3
6674922696,29,26,27,-6,2,3,-4,4
6674922696,18,32,-36,-1,2,-3,5,11
6674937808,-13,-27,-2,-13,-10,-5,-10,-12
6674937808,-16,-78,-12,6,-5,-6,-9,-2
6674943909,-54,-33,-4,-6,2,7,0,-11
6674943909,29,22,5,14,7,11,12,8
6674958878,3,-10,25,8,1,0,6,1
6674958878,-13,-38,-14,-20,-9,-6,-16,-9
6674966376,16,56,11,9,-10,-12,-11,-1
6674966376,-2,-103,0,-1,-13,-9,0,-3
6674982054,-4,55,-44,-39,-2,0,-6,4
6674982054,-25,22,19,6,-8,-6,-3,-9
6674982871,7,74,-15,1,9,5,16,-5
6674982871,-42,-68,-16,7,4,1,9,-1
6674997819,27,39,33,27,-1,2,-22,1
6674997819,14,-41,-20,-13,1,2,7,4
6675003890,-31,40,-5,-29,-14,-12,-7,-9
6675003890,34,93,46,43,15,8,6,4
6675018868,-12,-15,-12,-21,5,2,5,3
6675018868,-3,21,-25,-19,4,-6,-5,-5
6675026370,8,18,2,27,2,8,-17,2
6675026370,-7,-1,-5,-57,-23,-14,1,-7
6675042045,-9,-4,13,22,8,1,-11,-6
6675042045,12,72,11,21,9,10,8,6
6675042861,-10,-16,-2,-27,5,2,-6,1
6675042861,-15,19,-18,-32,-25,-17,-16,-6
6675057740,-13,8,-13,8,-4,-7,-2,-7
6675057740,14,26,8,-10,9,9,14,-1
6675063832,15,-54,-4,25,12,-9,3,11
6675063832,-5,-54,-6,-12,-3,14,-4,-13
6675078923,-3,4,6,-18,3,1,20,1
6675078923,0,-21,-2,3,-12,-11,-48,-5
6675086408,0,-40,2,-6,-4,11,12,8
6675086408,14,19,15,33,27,6,1,2
6675102071,3,-14,-6,-19,-4,-5,-12,1
6675102071,-4,-18,-2,-4,-8,1,5,-3
6675102688,-3,-22,-15,3,-5,-12,-7,-2
6675102688,0,14,-3,0,-15,0,-11,-3
6675124406,-1,-15,13,28,-2,1,2,1
6675124406,0,-4,4,2,10,8,11,2
6675125291,-5,0,-4,2,0,-8,-13,-4
6675125291,-4,-15,-11,-17,2,-4,0,-1
6675138887,-4,0,3,10,19,2,1,-2
6675138887,8,21,-9,-12,-13,-10,6,2
6675146372,4,5,18,25,-17,4,2,-5
6675146372,-3,6,-17,-29,-18,-8,-4,1
6675162059,11,13,-6,23,21,9,1,3
6675162059,0,35,17,-5,0,-7,1,-1
6675162758,3,11,-4,12,-5,-6,-3,1
6675162758,1,8,-10,-14,21,12,7,0
6675184561,-2,-6,-1,-15,-8,-6,-4,-3
6675184561,-3,-11,-2,-1,-13,2,6,2
6675185214,0,-17,-13,4,13,-2,1,1
6675185214,-8,-16,-2,4,-16,-10,-9,-4
6675198887,17,10,3,-2,-4,2,2,3
6675198887,-13,-24,-1,-2,11,-3,4,-3
6675206394,2,-7,4,-11,-9,12,0,0
6675206394,-3,-1,-2,8,2,-1,-1,0
6675222059,-3,-16,4,0,-14,-8,-19,-5
6675222059,1,-3,1,0,4,2,16,3
6675222734,-2,-12,-7,-3,4,1,5,2
6675222734,6,9,-6,6,1,-5,0,1
6675237749,-3,-11,1,-2,-6,-4,-6,-3
6675237749,2,6,-5,-5,-1,-1,-5,0
6675243820,2,-4,9,5,2,2,1,0
6675243820,0,6,11,6,4,-1,3,1
6675258833,-2,-8,-10,-9,-11,-7,-3,0
6675258833,-3,3,1,1,4,5,0,-2
6675266384,-3,-6,0,-4,2,2,2,-2
6675266384,5,-1,1,0,-5,-5,-5,0
6675282094,-7,-9,5,-1,-4,1,2,-5
6675282094,-7,-3,-3,9,5,2,-4,1
6675282757,8,3,3,-12,-8,-7,-5,0
6675282757,-12,-27,-18,-14,-2,-3,-5,-8
6675297781,0,7,2,2,0,4,5,2
6675297781,-2,5,-5,-1,-5,-7,-15,-5
6675303905,5,16,12,3,-1,-1,0,3
6675303905,0,-22,-8,-8,-3,-4,0,4
6675318896,-9,-11,-1,2,2,3,2,-3
6675318896,-7,-12,-3,-7,-4,-3,-3,-2
6675326402,-6,-19,-13,-7,-1,0,-4,-2
6675326402,20,16,12,4,3,3,2,3
6675342014,-22,0,-7,-5,-3,-3,-6,-6
6675342014,5,-5,-5,-4,-1,1,7,1
6675342780,-3,-2,-4,3,2,2,-1,2
6675342780,-16,8,0,2,-1,1,0,-3
6675357705,9,0,-4,-1,-2,-4,4,-5
6675357705,17,-3,1,1,1,4,25,6
6675363874,-1,4,-3,-2,2,-1,0,-3
6675363874,14,11,2,-1,-4,-6,5,6
6675378824,-9,2,-2,-1,-2,-1,1,-2
6675378824,-12,6,2,0,2,3,-2,-6
6675386341,1,20,-4,-4,0,4,4,-1
6675386341,-4,9,1,-1,0,-5,-6,-1
6675401940,2,3,0,0,-1,-1,12,-2
6675401940,-8,11,0,2,2,-1,-26,-1
6675402838,-15,-9,-12,-5,-6,-8,-2,-7
6675402838,18,11,6,1,-2,-1,-6,-2
6675417777,7,-36,4,5,0,3,6,7
6675417777,-10,1,-4,-10,-2,-3,-5,-1
6675423813,17,21,-2,-9,0,0,2,2
6675423813,-3,9,23,29,4,3,-3,4
6675438816,-23,90,-18,-14,-24,-10,-20,-8
6675438816,23,-26,-19,-19,11,1,13,-8
6675446388,-7,58,16,12,13,9,8,6
6675446388,14,-61,-1,17,-10,-4,-3,-2
6675462053,0,-33,-9,-36,5,7,6,4
6675462053,-44,-68,4,27,-18,-11,-11,-11
6675462732,8,61,14,58,-17,-9,21,-4
6675462732,-43,-1,24,-69,38,3,-24,-10
6675477762,13,-2,-44,17,-15,-6,-5,0
6675477762,26,17,40,29,-17,-9,4,4
6675483870,-14,-67,-62,-8,13,15,-25,5
6675483870,-20,19,6,34,7,3,20,-1
6675498857,11,-11,15,-5,2,-1,-12,1
6675498857,10,46,-5,-29,-1,4,-7,2
6675506367,11,23,30,29,-15,-15,-18,1
6675506367,-1,87,-8,-12,-2,1,16,-9
6675522089,-14,54,0,-6,14,-7,-22,-8
6675522089,21,80,-2,4,-2,22,26,11
6675522762,4,11,12,4,0,-5,3,0
6675522762,-13,-19,-24,-15,-19,-2,2,-2
6675537768,-7,-59,6,-7,6,-8,10,-8
6675537768,1,-28,4,7,1,-10,-13,2
6675543897,-5,-59,3,0,4,-7,-2,-6
6675543897,14,-60,-9,-25,-8,1,-21,4
6675560281,-14,-58,23,38,21,13,4,-4
6675560281,-20,-46,-8,-7,10,1,1,-2
6675567121,7,-48,-4,-24,-10,-3,-4,1
6675567121,10,-23,-8,25,-8,-8,-2,1
6675582562,20,24,3,-6,-13,-4,-6,3
6675582562,-5,-9,-12,-7,5,1,-3,-6
6675584191,-7,-19,-11,-18,-4,-1,8,0
6675584191,-10,17,11,-1,-17,-4,-1,-7
6675612702,13,1,-2,0,13,7,7,4
6675612702,-26,-2,-9,-1,2,0,10,-5
6675613475,7,18,19,6,-10,-11,-15,-7
6675613475,-3,5,-12,-31,0,-1,-3,7
6675618758,-4,-8,-6,8,-5,0,1,1
6675618758,9,20,3,-4,-9,-14,-16,-2
6675626287,-11,-3,-6,-12,12,7,3,-6
6675626287,1,11,6,13,0,2,2,2
6675641877,9,5,-6,-9,-8,-2,-1,-1
6675641877,3,12,5,17,0,2,5,4
6675642653,-17,-12,-2,-9,4,1,-5,-8
6675642653,4,-5,-10,0,-7,-5,2,-1
6675657709,-13,3,6,21,6,0,-1,-2
6675657709,11,7,-23,-16,4,0,-1,0
6675663765,-6,0,0,3,6,4,3,-1
6675663765,4,-8,-6,-3,-16,-14,-10,-5
6675678726,-10,8,18,-7,-10,0,-2,3
6675678726,-5,-12,-1,0,5,5,12,-8
6675686315,5,-8,1,20,3,3,4,5
6675686315,0,1,-15,-19,-3,-5,-2,-3
6675701949,-5,-1,-6,-10,-11,-12,-7,-3
6675701949,5,-3,4,-3,-11,-5,7,-1
6675702816,-1,1,-8,-18,6,4,6,0
6675702816,-7,1,3,18,0,2,-1,-2
6675717799,9,-3,1,-5,1,2,6,6
6675717799,-1,2,1,3,0,-3,-13,0
6675723853,-3,8,7,-2,9,6,-1,-5
6675723853,-9,-19,-16,-1,2,-2,1,-1
6675738907,8,3,0,6,-1,2,1,-1
6675738907,-3,0,-2,-11,-8,-7,-10,2
6675746251,1,-2,1,-4,-12,-4,-1,1
6675746251,-3,3,12,5,5,7,5,-3
6675761273,-9,4,7,11,5,1,2,-3
6675761273,5,-12,-10,11,3,-1,-3,1
6675768898,-1,-4,-8,-43,-9,-7,-2,-2
6675768898,-2,-13,4,1,4,2,0,-4
6675777738,-7,-7,2,10,-2,-2,3,-1
6675777738,1,1,4,9,3,1,-1,-1
6675783814,-3,2,0,3,-2,-1,-3,-2
6675783814,13,2,1,2,-1,-1,-2,3
6675798859,3,3,-11,-6,-5,-1,-2,0
6675798859,-18,-11,-8,-7,1,4,0,-4
6675806265,0,-4,-7,-17,-12,-3,5,-2
6675806265,0,-5,-2,10,6,0,-6,1
6675821380,3,-2,4,4,-1,-5,-2,-2
6675821380,2,1,-2,-10,-6,-6,-4,-1
6675828742,3,-4,-5,1,-3,-3,-8,-1
6675828742,1,11,2,14,3,4,-1,0
6675837761,-5,1,-5,-20,-4,1,2,-1
6675837761,-3,-4,10,14,7,-3,-1,0
6675843822,4,2,-3,6,-4,-5,-4,1
6675843822,2,1,-9,-18,-8,-6,-3,-5
6675858909,-7,-3,-1,-1,-5,-4,-5,-2
6675858909,-6,0,-10,-20,0,1,1,-5
6675866277,3,1,6,11,9,8,-5,3
6675866277,-2,-1,-2,-6,-3,2,9,1
6675881251,6,1,-2,-6,-10,-6,-3,-2
6675881251,-5,-5,5,0,-8,-7,-6,-1
6675888768,5,2,-3,3,7,4,5,2
6675888768,-7,-3,-12,-15,-2,-1,-2,2
6675897753,4,-2,4,-3,-1,-2,1,-3
6675897753,0,7,3,13,8,3,-2,5
6675903702,-15,-12,2,6,-3,-1,1,-6
6675903702,11,6,2,-1,-1,1,1,0
6675918847,-2,3,-9,-6,-3,0,1,-1
6675918847,9,5,3,7,-2,1,1,0
6675926253,-2,4,-5,-6,0,1,0,-2
6675926253,-2,1,5,15,1,0,-2,-3
6675941322,1,3,-8,-11,-2,-3,-5,2
6675941322,-7,0,-4,-3,-3,-1,0,-3
6675948814,-13,-10,4,9,1,-2,-2,-3
6675948814,1,-6,-6,-21,-11,-5,0,-1
6675965774,5,8,13,19,-4,-2,-4,0
6675965774,8,2,-3,-2,8,3,-1,0
6675966623,1,6,-7,-10,-3,1,3,2
6675966623,-3,1,1,8,2,0,-3,0
