timestamp,emg1,emg2,emg3,emg4,emg5,emg6,emg7,emg8
12107710950,-1,-2,3,0,3,1,1,-1
12107710950,-1,-2,1,2,-5,-3,-2,-1
12107711569,0,2,0,-6,0,0,-3,-1
12107711569,-1,0,-5,-3,-3,-1,-1,-2
12107712392,-2,-3,0,-6,-2,0,-1,-1
12107712392,-6,-4,1,-3,-1,-4,0,2
12107713268,5,-2,-1,3,-1,-1,0,-1
12107713268,-3,-4,-4,-4,-1,-1,-1,-5
12107724614,2,2,-4,4,-1,-1,-1,0
12107724614,-3,0,-3,6,2,3,0,-3
12107732613,-8,-5,-3,-15,-6,-1,-1,-1
12107732613,2,0,-3,4,5,0,-2,1
12107738934,1,-1,-2,-6,-13,-6,-5,-2
12107738934,1,2,10,8,4,-5,-2,-1
12107753956,2,0,-2,-3,5,4,2,0
12107753956,-6,-4,5,0,-1,0,1,-2
12107763321,-3,-4,-3,4,-4,-2,0,-1
12107763321,1,-1,-2,-5,-10,-5,-4,-1
12107768858,0,-1,-10,-2,12,1,0,-2
12107768858,1,3,12,6,6,1,3,2
12107784744,1,0,-1,5,2,-3,-1,2
12107784744,-7,-3,-3,-14,-4,3,1,-4
12107792585,-2,-4,-2,16,4,-1,-4,-2
12107792585,2,-1,-7,-12,-9,-5,-4,2
12107832100,-4,-4,0,10,5,4,3,-1
12107832100,4,0,1,1,4,0,0,2
12107832929,1,1,-1,4,0,-2,-1,-2
12107832929,1,0,-3,-6,-2,0,-1,-1
12107833874,0,2,1,-4,-3,1,-1,-1
12107833874,-1,3,-2,-7,-4,-1,-2,-1
12107836179,-3,0,0,10,-3,1,-1,-1
12107836179,-6,-5,-1,2,-1,-1,-3,-1
12107844362,5,0,-5,-6,1,-1,1,1
12107844362,2,0,0,10,9,2,2,-2
12107851144,1,-1,-3,-6,0,-3,-1,-1
12107851144,-3,-1,-1,-11,-14,-6,-2,-3
12107858773,-5,-1,-4,2,1,-1,-1,0
12107858773,-5,-5,-6,-7,-15,-7,0,-3
12107873779,-1,-3,2,11,9,1,-1,-1
12107873779,3,3,4,20,14,2,0,1
12107881914,2,-2,-4,-21,-5,0,-4,-1
12107881914,-2,0,1,0,-1,-2,-5,-2
12107888782,-4,-2,0,-19,-13,-5,-1,-3
12107888782,-2,-4,-4,-11,-10,-5,-1,0
12107904496,-1,0,0,24,8,-2,-4,-3
12107904496,1,-3,3,11,1,2,0,0
12107911311,-2,0,-3,-3,0,6,3,0
12107911311,3,1,0,-10,-3,1,-1,0
12107918759,3,1,5,-9,-8,-8,-4,0
12107918759,-3,1,-1,2,2,1,1,-3
12107933773,0,-2,-1,2,1,-2,0,1
12107933773,-3,-2,-1,8,-3,-2,1,0
12107941801,-5,-4,-2,-7,8,2,1,0
12107941801,2,-2,2,-6,-4,-1,-2,0
12107948709,0,0,-2,8,4,-1,-1,0
12107948709,-1,1,-1,-5,4,1,0,-3
12107964259,0,1,-2,0,-7,-5,-4,-2
12107964259,-1,-3,-4,-2,-5,-4,-2,-2
12107971260,-4,1,5,-14,-4,-4,-4,-3
12107971260,-6,-6,-9,-6,2,1,0,-5
12107978643,2,0,3,12,3,2,2,1
12107978643,-2,-3,-4,-10,-5,-2,0,1
12107993740,2,1,-6,2,-1,-6,-5,0
12107993740,-3,-3,1,-2,-4,-6,-5,-1
12108001951,5,-1,-2,-14,1,6,3,1
12108001951,-1,3,-7,-1,-2,-3,-1,-2
12108008593,0,-4,-3,9,-1,1,1,-1
12108008593,0,0,-3,-2,-5,1,1,-2
12108024385,-3,-1,0,1,4,-3,-2,-4
12108024385,-7,-11,-1,-5,-1,-3,0,0
12108031248,0,2,2,-1,-7,-4,0,-4
12108031248,5,1,-3,-2,10,3,1,2
12108038733,-1,-1,2,-3,-9,-2,2,0
12108038733,2,6,4,0,4,-2,-1,0
12108053537,-3,-1,-2,0,-1,0,-3,0
12108053537,-3,-3,0,7,-6,-4,-3,-1
12108062598,-10,-12,-1,-5,-9,-2,-3,-5
12108062598,1,0,1,-4,19,11,7,0
12108068588,1,2,-4,-2,-6,-3,-4,-2
12108068588,-1,2,2,6,12,2,3,0
12108085114,-4,-4,2,11,-6,-7,-3,-2
12108085114,-2,0,-4,2,-9,-6,-5,-1
12108091080,-3,-1,-3,-31,-17,-8,-2,1
12108091080,3,0,4,10,7,9,3,3
12108107574,0,0,-2,5,13,-1,0,1
12108107574,0,-2,1,-8,-1,2,-1,-1
12108113581,4,4,3,13,4,1,0,-2
12108113581,-2,-1,-4,-1,-10,-6,-2,0
12108128624,-2,1,-3,-3,-6,-1,-2,1
12108128624,2,3,-1,1,1,0,-2,-2
12108136074,-5,-3,-5,-8,7,5,4,0
12108136074,-1,-1,0,7,4,3,1,-1
12108145094,6,4,-2,4,9,4,2,2
12108145094,-2,-3,-4,-3,-12,-5,-6,-2
12108151081,-2,-4,-1,-2,-2,-2,-1,0
12108151081,4,-2,-1,-5,-2,-1,-3,-1
12108167585,0,-1,-5,-9,-11,-3,-2,0
12108167585,0,-1,4,13,-2,0,-1,-3
12108173688,-5,-2,2,4,6,5,1,-4
12108173688,-5,0,5,-6,7,3,0,-3
12108182755,0,-2,-14,-2,-1,-4,-5,-2
12108182755,0,-3,-4,-11,-3,-2,0,0
12108196200,1,-1,0,7,-1,1,-1,-2
12108196200,-1,3,-3,-10,-6,-6,-3,-2
12108205213,-2,-1,-2,6,1,-1,0,0
12108205213,-4,-1,-7,-2,0,-1,2,0
12108211158,4,2,12,-1,-4,-2,0,-1
12108211158,0,-1,-2,1,-8,-6,-2,-2
12108227639,-4,-6,-4,-4,-9,-8,-4,-3
12108227639,-6,-3,2,2,10,8,2,-2
12108233726,3,-2,-8,-3,5,1,0,3
12108233726,1,1,-2,-3,-3,-2,-1,0
12108242654,-2,2,2,-8,-6,-4,-1,0
12108242654,2,-2,-1,4,-9,-6,-2,-1
12108256276,-4,-4,-6,-8,6,0,1,1
12108256276,-3,-1,4,14,3,-2,0,-2
12108265109,-5,-2,3,0,-10,0,-3,-3
12108265109,-3,-1,-7,-21,3,0,-1,-1
12108271275,3,1,0,9,-1,-1,-3,0
12108271275,-3,-3,-11,-6,-7,-5,-5,-3
12108287621,-1,2,9,3,8,6,4,-2
12108287621,0,-1,4,12,1,0,0,-1
12108293799,-3,0,-4,-15,-7,-2,-4,-3
12108293799,5,4,1,4,-4,-4,-2,1
12108302647,-3,-6,-12,-4,1,0,1,-1
12108302647,-2,-1,3,0,-5,-2,0,0
12108316166,-3,-7,-5,-10,-10,-5,-1,0
12108316166,-6,-3,3,23,14,4,2,-2
12108325172,4,4,6,6,1,-1,-4,-1
12108325172,2,1,-9,-14,-6,-3,-3,2
12108331223,-1,-4,3,0,0,1,0,-1
12108331223,2,-1,-5,-12,-7,-1,0,0
12108347638,0,-2,-2,-3,-2,-2,1,-2
12108347638,-1,0,-1,-1,-4,-6,-4,-2
12108353782,-4,-3,1,5,0,0,1,0
12108353782,0,-1,-5,-10,3,4,0,-1
12108362632,0,6,11,2,-4,0,-1,-1
12108362632,4,1,0,0,0,-2,-2,1
12108376290,1,0,-4,-7,-6,-7,-5,-1
12108376290,-8,-6,-5,-3,5,2,1,-1
12108385124,-1,-4,-2,-7,-6,-3,-2,-2
12108385124,-2,2,3,10,-4,-2,-3,-2
12108391280,-1,-1,-2,1,12,6,3,0
12108391280,4,6,1,-10,-9,-10,-5,1
12108407608,-2,-3,-8,-1,-3,3,0,0
12108407608,0,-1,3,6,4,2,-2,-2
12108413733,4,0,-8,1,1,1,0,-1
12108413733,-6,-3,0,-2,-1,0,0,-4
12108422632,-5,-3,-2,-9,0,-1,0,0
12108422632,6,-2,1,4,-7,-3,-3,2
12108436137,2,3,1,4,4,-1,1,1
12108436137,0,0,4,5,3,2,0,-2
12108445080,-3,0,0,8,1,-1,-1,-2
12108445080,-3,-1,-5,-4,-4,1,0,-1
12108451093,-3,-1,8,2,-3,-1,-2,-2
12108451093,-1,-1,-1,-6,-4,-2,-5,0
12108467588,1,3,-5,-4,1,-1,-1,-1
12108467588,-7,-7,-2,-1,1,1,3,-3
12108473707,-1,1,2,0,-2,-1,0,1
12108473707,-6,-4,0,-2,-5,-2,-4,-3
12108482602,-4,-2,1,-2,2,0,1,-4
12108482602,12,1,-6,-3,0,-2,-7,5
12108496230,5,7,-9,5,3,0,4,1
12108496230,-15,-4,39,2,-5,-2,0,-2
12108505122,-7,-8,0,-1,0,-1,5,-4
12108505122,3,7,7,-1,2,1,2,-1
12108511114,-2,-4,7,-4,-7,-5,-4,-4
12108511114,5,2,-13,6,6,2,2,-2
12108527630,-1,5,4,-2,0,3,-4,1
12108527630,-8,-10,-11,-2,1,-2,1,-4
12108533739,3,1,-27,0,-1,-1,-3,2
12108533739,-2,2,7,-7,-2,0,0,2
12108542630,8,-2,27,2,-3,-4,-3,5
12108542630,1,-1,-35,-1,2,2,0,0
12108556230,-9,-18,14,2,-3,0,2,0
12108556230,-8,-3,-62,-6,-7,-4,-6,-17
12108565137,1,54,72,6,-3,-3,-1,7
12108565137,6,-22,-24,-1,2,4,-1,4
12108571228,-7,20,-12,5,11,7,17,15
12108571228,-6,-75,-13,-4,2,2,-6,-15
12108587637,25,37,18,0,-3,-2,2,35
12108587637,-10,1,4,-3,-5,-6,-4,-22
12108593623,-4,9,-14,-4,-7,-5,-5,-9
12108593623,1,-26,-17,-3,-4,-2,8,-6
12108602610,-20,17,-33,-6,9,5,-5,-18
12108602610,6,-1,44,11,2,0,5,14
12108616078,13,22,-8,7,4,-3,2,-4
12108616078,2,26,79,-5,-11,-8,-13,-15
12108625065,-11,-37,20,6,-8,-7,4,-2
12108625065,-7,-10,-58,-7,-9,-4,1,-3
12108631053,5,9,-5,2,7,3,0,-2
12108631053,-3,-8,-14,7,9,4,3,11
12108647585,-13,-30,-47,-26,-6,-1,-4,-1
12108647585,3,3,34,21,7,4,-2,-2
12108653592,6,-13,32,-12,-7,-3,-4,1
12108653592,7,17,-25,13,-9,-3,-1,13
12108662586,1,-12,-14,-17,-7,-3,-5,-12
12108662586,-11,7,17,17,1,-5,1,-5
12108676134,-7,-56,0,-9,1,3,-12,-9
12108676134,10,71,28,-4,6,-2,5,7
12108685097,9,-3,-50,-11,-2,-5,-3,-8
12108685097,-11,20,36,-8,-14,-6,-4,1
12108691086,-4,-3,23,7,5,0,-3,0
12108691086,-12,-23,6,25,6,6,1,3
12108707624,13,-6,-14,5,-4,1,1,-1
12108707624,4,4,2,18,0,0,1,6
12108713551,-17,-2,-2,-31,-8,-6,-6,-9
12108713551,18,5,-7,-20,-5,-5,1,6
12108722578,-2,-2,-1,-4,4,9,2,-4
12108722578,-4,-7,-1,-11,8,4,1,-1
12108736088,-2,-1,-2,25,-2,-2,0,-1
12108736088,0,0,-13,-8,-9,-5,0,5
12108745121,-2,-8,7,7,-3,-5,-6,-2
12108745121,-5,-3,-7,-21,-8,-2,-2,-3
12108751074,1,-2,-4,8,0,2,-1,-2
12108751074,4,9,18,-4,11,2,2,1
12108767658,-3,-6,9,12,2,-2,0,-2
12108767658,-8,-6,-25,-13,-1,-1,7,-6
12108773652,-4,-7,-14,-8,-12,-7,-20,-3
12108773652,0,-9,-15,0,2,1,14,5
12108782660,-2,-1,-3,-4,-1,1,4,4
12108782660,12,10,-2,-2,6,3,-5,1
12108796107,5,12,-16,7,11,2,8,2
12108796107,-14,-46,-16,-8,-13,-6,-9,-7
12108805105,-2,1,-2,10,-7,-7,-11,-6
12108805105,-13,-3,18,-17,6,2,4,-3
12108818633,-1,-3,-13,-12,-3,1,0,0
12108818633,9,8,15,4,-8,-1,-5,-1
12108827694,-2,6,-13,17,12,3,5,-2
12108827694,-6,-6,-4,4,4,2,-5,-1
12108842516,2,4,5,1,-6,-4,-1,-2
12108842516,0,2,-8,-15,4,4,-2,1
12108844118,-6,-11,3,-4,-1,-1,1,0
12108844118,2,9,-3,2,-10,-5,-5,-1
12108856201,-5,-2,-1,-3,9,0,1,-2
12108856201,-4,1,-9,-3,-3,-3,0,-4
12108865211,5,-3,1,2,-4,-3,-2,4
12108865211,0,2,-7,-1,-5,1,-2,0
12108878662,3,-17,0,-2,-5,-5,2,-2
12108878662,4,11,11,4,4,4,-2,0
12108887681,-4,-2,-5,-8,12,4,2,-2
12108887681,2,-6,16,4,0,-4,-2,1
12108902451,-2,10,-40,-8,-4,-1,0,-2
12108902451,-6,1,-6,9,-1,-3,-3,-4
12108904026,-4,-9,-12,-7,-6,-2,-3,-1
12108904026,10,-2,11,-6,-3,-1,1,1
12108916091,1,-8,5,5,-1,-2,-4,-1
12108916091,-7,-4,36,-14,-4,-1,-2,-3
12108925202,0,11,1,5,-2,0,0,-2
12108925202,-1,23,18,-13,-5,-3,-5,0
12108939334,1,2,-7,-1,-7,-2,-1,-3
12108939334,-5,-5,-36,1,-5,-2,-3,-2
12108946098,-2,-10,3,3,15,3,2,1
12108946098,1,-1,-13,6,0,0,3,-1
12108962433,2,2,36,16,-5,-2,2,1
12108962433,2,10,-1,-12,-5,-3,-2,-1
12108964041,5,2,-3,-1,-6,-4,-1,1
12108964041,-2,-6,1,3,5,0,-3,1
12108976229,-5,-1,0,-4,-4,-1,0,-1
12108976229,-1,-5,1,2,-2,-2,0,0
12108985201,-7,-7,7,-4,1,-2,-4,-6
12108985201,-6,-10,-12,1,0,-3,-2,-2
12108999388,-3,2,-5,-5,-3,0,0,-2
12108999388,8,16,-12,-5,-9,0,-1,3
12109006195,0,-11,-17,-6,-2,-1,-1,-1
12109006195,-4,-8,-14,20,16,7,2,-2
12109022493,-2,6,37,6,8,1,-1,-2
12109022493,-5,-4,-7,-1,6,3,1,-4
12109024078,-3,7,32,9,-3,-3,-2,-1
12109024078,6,-8,-36,-19,-15,-6,-3,0
12109036122,-2,4,-5,2,-3,-2,-2,1
12109036122,-1,-6,2,1,9,2,-1,0
12109045123,-6,-6,-13,-13,-4,-4,0,-4
12109045123,2,5,1,-13,-10,-6,-1,-1
12109059441,1,5,14,11,11,3,3,-1
12109059441,0,-8,-10,7,7,1,1,0
12109066189,0,2,-4,2,-2,0,-1,0
12109066189,-10,5,19,0,4,0,-2,-4
12109082447,-1,-12,-7,-9,-3,-1,-1,-3
12109082447,4,2,-8,-4,-8,-4,-1,1
12109084064,3,-2,-1,5,1,4,0,0
12109084064,-2,-6,1,-6,-7,-2,-3,0
12109096200,-3,-2,-7,-4,-6,1,-1,0
12109096200,-8,-8,3,8,1,0,-2,-4
12109105077,5,3,11,-6,1,-1,-2,3
12109105077,4,-9,-3,0,6,3,2,-2
12109119428,2,7,7,-4,-5,-4,-4,0
12109119428,-1,-2,-28,-1,-1,1,1,-1
12109126256,-3,1,3,13,-5,-4,-4,-2
12109126256,-2,-1,-8,-16,-4,-1,-2,-1
12109143072,2,1,-10,-9,-7,-3,-4,2
12109143072,0,3,7,19,10,2,1,2
12109144530,-4,-2,10,2,2,4,1,-1
12109144530,6,7,6,17,1,-2,-1,-1
12109156218,-5,-4,19,-8,-2,0,0,-2
12109156218,-2,-4,1,-9,-7,-2,-3,-1
12109165073,2,-2,-15,-12,0,-1,0,-1
12109165073,-4,3,-9,12,0,0,1,-1
12109179285,0,-4,-15,-21,-4,-2,-1,-2
12109179285,5,0,-2,15,7,-2,-1,1
12109186157,1,-6,-17,-12,-2,1,0,0
12109186157,-3,1,42,13,-7,-5,-4,-4
12109202564,-6,-3,-11,0,1,0,-2,-3
12109202564,2,4,8,-11,0,1,0,0
12109204071,1,-3,-20,-18,-10,-6,-2,-3
12109204071,0,-4,-10,-5,1,-4,1,2
12109216230,-6,-3,-10,13,-2,1,2,0
12109216230,-5,-9,18,-6,-11,-3,-2,-1
12109225089,4,10,11,12,2,0,-2,0
12109225089,-5,-7,-24,-7,5,5,1,-1
12109239343,5,-2,2,2,3,-2,-1,0
12109239343,0,1,-19,-12,-4,-3,-4,0
12109246157,-4,1,13,2,-7,-3,-3,-2
12109246157,-3,-4,8,3,-4,1,-1,-2
12109262572,-2,2,-12,-4,1,-2,-2,-2
12109262572,1,4,-1,-10,-4,-1,0,0
12109264072,-1,-2,-5,2,3,1,1,-1
12109264072,-2,-1,-5,-4,-5,-2,-1,0
12109276204,-1,0,5,6,0,0,0,-1
12109276204,4,1,3,-5,-4,-3,-1,-1
12109285223,-1,-3,-11,-3,-2,-1,1,0
12109285223,-5,-2,-9,2,7,4,3,-1
12109299369,2,-2,22,3,3,0,-2,-1
12109299369,0,3,7,2,-1,-2,-3,1
12109306182,-1,1,3,1,2,0,-1,-1
12109306182,-2,-7,-17,-5,-7,-1,-2,-2
12109322482,0,-1,-11,-21,-4,-3,-2,0
12109322482,-2,4,24,18,4,-2,0,-2
12109324057,-1,0,-12,6,7,2,1,0
12109324057,-2,-9,-18,1,-1,-4,-2,-1
12109336230,-3,0,25,-9,-10,-2,-4,-2
12109336230,-1,-3,-3,-20,7,1,-1,1
12109345009,-2,-4,4,4,-3,-4,-2,-3
12109345009,4,12,-3,-10,-8,-5,-2,-1
12109359338,1,2,5,23,5,3,2,1
12109359338,1,-2,-7,0,-3,2,2,2
12109366129,3,-2,2,2,-2,-1,0,0
12109366129,2,-2,0,-7,-1,0,-3,-1
12109382463,-2,1,-10,19,5,0,-1,-1
12109382463,-4,6,1,-17,-4,0,-1,-3
12109384177,-14,-4,-14,-7,-4,-2,0,-4
12109384177,5,-11,7,1,-5,-5,-3,-3
12109396148,9,1,14,-8,-5,-1,1,4
12109396148,-3,-8,-44,0,2,-1,-1,-2
12109405162,1,1,18,5,-2,-3,-2,-2
12109405162,-5,-1,10,-7,-2,1,1,-1
12109419337,-3,3,-10,-4,1,-1,0,-2
12109419337,1,3,17,7,-2,-3,-2,-1
12109426149,0,-4,-7,-5,-7,-2,-2,1
12109426149,-1,5,4,4,1,-2,-1,-1
12109441805,-3,-11,-28,-2,4,0,-1,-2
12109441805,-1,-1,10,10,-2,-1,-3,0
12109448632,-1,-2,3,-7,-2,0,-2,-3
12109448632,3,1,4,-10,-3,1,0,0
12109456134,-2,1,-5,11,8,-1,-2,0
12109456134,-7,-8,-18,-12,2,2,1,-3
12109465191,5,2,6,7,4,1,0,3
12109465191,-1,-6,4,7,2,-3,-2,1
12109479204,-2,-2,-7,-8,-6,-1,-1,-3
12109479204,-1,0,-5,-12,-10,-5,-3,-3
12109486142,-3,-8,-7,1,4,1,-1,-1
12109486142,1,5,3,3,-1,0,0,-1
12109501918,-7,-2,-1,-6,-7,-1,1,-2
12109501918,-1,2,9,10,2,-1,0,2
12109508696,-2,-5,-20,-10,-7,-4,-1,-1
12109508696,-1,1,-13,2,7,3,2,1
12109516159,-2,-2,2,-2,-1,-3,-4,-1
12109516159,-1,0,-3,5,-4,-1,2,-4
12109525164,7,-2,-2,0,0,0,-2,0
12109525164,-1,8,22,0,-1,-2,-1,-2
12109539334,-1,-9,-1,-3,-1,-2,-1,0
12109539334,-4,-7,1,3,1,-2,1,-2
12109546051,-5,2,4,-2,-5,-2,-1,-2
12109546051,0,1,-15,-16,7,3,2,1
12109561851,5,4,-5,10,-4,-3,-2,-1
12109561851,-4,0,12,2,0,0,-2,-1
12109568582,0,0,4,6,1,0,0,-1
12109568582,2,-2,-2,5,0,1,-2,-4
12109585021,-3,1,2,1,-2,-2,0,0
12109585021,1,-4,-8,-12,0,-1,-2,-1
12109586566,0,0,-2,-12,-4,-3,-1,-2
12109586566,-6,0,12,4,4,-2,-2,1
12109599390,1,2,-7,-3,1,-2,1,-2
12109599390,-3,-16,-19,15,8,2,-1,-2
12109606169,-3,1,17,-1,-2,-2,-2,0
12109606169,-1,-7,-3,0,-8,-5,-3,-2
12109621877,2,3,7,-3,0,2,1,-1
12109621877,0,5,-5,-4,-5,-2,-2,0
12109628603,-3,1,-9,-7,-2,-2,-3,-1
12109628603,-1,-3,6,11,-2,-4,-3,-2
12109645056,-5,-3,-2,-4,-1,3,-1,-3
12109645056,4,5,6,0,3,3,2,0
12109646668,4,3,3,4,4,-1,0,1
12109646668,-7,-7,6,-2,-4,-2,1,-2
12109659240,3,-4,-23,-4,2,0,1,0
12109659240,1,5,17,0,-5,-1,0,0
12109666162,0,0,0,3,-5,-3,-2,-1
12109666162,-2,5,-3,-5,-2,-1,-1,-1
12109681876,-3,-4,-4,-11,5,2,0,-1
12109681876,-4,0,-5,-1,3,0,-2,0
12109688524,1,0,5,2,1,-1,0,0
12109688524,2,0,2,11,-1,0,0,1
12109704999,-2,-8,-5,1,-4,-5,-3,-3
12109704999,0,5,1,-15,-8,0,0,-1
12109706522,0,1,-17,1,0,2,2,-1
12109706522,1,0,9,-2,0,-3,-2,-2
12109719383,1,4,12,1,-2,3,2,-1
12109719383,4,-3,-5,-1,4,0,-1,0
12109726092,-3,-4,-10,-7,-1,1,-3,-1
12109726092,-3,-7,-18,-5,-6,0,-2,0
12109741903,-6,-1,28,6,-2,-1,-1,1
12109741903,-2,0,-14,9,-2,-4,0,-1
12109748739,5,3,3,-13,-2,-1,-2,-1
12109748739,3,2,-14,-14,-2,-4,-3,-4
12109765079,0,-5,-12,0,-1,-3,-3,-3
12109765079,-4,1,14,4,1,-1,-1,-1
12109766558,-4,-5,-1,6,-1,-2,-1,0
12109766558,1,2,2,-3,-2,3,0,0
12109779359,-3,3,2,-4,-6,-2,-3,-1
12109779359,0,0,9,-3,-5,-2,-2,0
12109786059,-2,-5,-18,1,3,2,0,-1
12109786059,-2,-1,1,1,0,-2,-2,-1
12109801829,1,-7,-10,-2,0,-2,-1,-1
12109801829,0,2,-3,-4,0,0,-2,-3
12109808548,-9,-3,9,-6,-1,-1,-2,-2
12109808548,-3,-4,2,3,0,0,0,-1
12109825051,6,4,1,1,2,-2,0,1
12109825051,-1,0,-5,-14,-10,-3,-2,-1
12109826538,-8,-5,-5,5,4,-1,-2,-3
12109826538,-7,4,-9,-4,-3,-6,-4,0
12109839269,1,-16,2,16,9,1,1,0
12109839269,5,0,28,10,7,3,4,1
12109846199,0,2,-14,-7,0,1,2,-2
12109846199,2,-1,-1,3,-6,-4,-1,-1
12109861844,-6,2,-10,-14,-4,-6,-2,0
12109861844,-5,-4,-7,-4,-6,-5,-2,-2
12109868706,1,-1,9,11,5,-2,1,-1
12109868706,-2,-1,-8,-3,1,-1,0,0
12109884963,0,7,6,-2,-7,-2,-4,-2
12109884963,-1,-11,-18,-4,2,2,-3,-3
12109886603,-2,5,5,4,-6,-1,-2,-1
12109886603,0,-3,-5,-2,1,3,2,-1
12109899384,-2,-1,-6,-12,-3,2,1,0
12109899384,-1,5,7,-2,-9,-5,-5,0
12109906156,1,4,14,-1,0,2,1,1
12109906156,-5,-7,-7,1,9,2,0,-2
12109921855,1,-1,4,8,2,1,-1,0
12109921855,-1,1,-5,-6,-1,-2,-3,-1
12109928658,-2,-5,-4,-2,-6,-3,-2,0
12109928658,0,-2,3,-5,1,3,1,-1
12109944867,-5,2,-15,-2,-3,1,2,-2
12109944867,2,-3,-3,13,4,2,0,0
12109946479,3,7,30,3,-2,-2,0,0
12109946479,2,-5,-29,-7,-6,-4,-4,-3
12109959341,-4,3,6,-2,-2,-3,-4,-4
12109959341,-6,-5,-13,-2,-7,-2,-1,-4
12109966231,6,8,13,-3,8,2,0,0
12109966231,-3,-18,1,13,-3,-3,-1,-1
12109981779,-1,-1,-8,-9,5,2,0,1
12109981779,-2,0,3,10,2,0,-1,0
12109988688,-4,-9,-14,-8,-3,-3,-3,-4
12109988688,2,9,11,-2,-1,2,-1,0
12110004918,1,3,9,4,-6,-6,-1,1
12110004918,1,-1,-14,-8,2,-2,0,-3
12110006655,-3,-2,-5,-1,-3,1,0,-2
12110006655,1,2,-2,2,3,-1,-1,2
12110019335,1,0,14,-5,-4,-1,-1,-1
12110019335,-2,2,2,0,3,0,0,0
12110026021,0,-4,-10,-1,1,-1,-1,-1
12110026021,-2,3,5,-5,-3,-2,-3,-2
12110041826,-1,-1,-1,1,-2,-1,-3,0
12110041826,-4,-6,-9,-11,-9,0,-1,-1
12110048536,3,-5,-8,9,2,0,-4,-1
12110048536,1,3,22,-2,6,4,1,0
12110064861,-3,1,-5,7,-1,-1,-1,-3
12110064861,-2,1,2,-6,0,-1,-2,0
12110067391,-2,-3,-7,-3,-7,-4,-1,0
12110067391,0,4,3,7,-8,-2,-1,-1
12110078662,-2,-5,-14,-8,6,2,-2,-2
12110078662,2,-1,7,-9,-6,-2,0,-1
12110087545,-2,0,11,9,0,-2,0,2
12110087545,-2,-3,-15,-10,-6,-3,-3,-3
12110101721,-3,-2,0,1,-1,-1,-1,-1
12110101721,0,-3,-8,2,0,-1,-2,-1
12110108492,2,-1,-1,-9,-1,-2,0,1
12110108492,0,-4,9,8,-6,-4,1,1
12110125019,2,0,-16,-5,2,-2,-1,-1
12110125019,0,-1,3,-4,-1,0,1,-1
12110126513,-4,3,5,1,-7,-1,-2,-3
12110126513,0,0,-2,-11,1,2,-1,0
12110138627,-2,-6,-10,4,0,-1,-1,-1
12110138627,3,0,2,7,6,0,-1,1
12110147497,-2,-3,-5,1,-3,-2,-2,-4
12110147497,0,0,-4,1,-5,-5,-4,-2
12110161827,0,2,2,-3,4,0,0,1
12110161827,-2,5,12,4,-1,1,2,-3
12110168563,-4,-1,-5,-3,4,1,1,-2
12110168563,-1,-4,-1,0,6,-1,-2,-1
12110185042,-4,-1,5,-7,-6,-2,-4,-3
12110185042,-2,-7,-9,3,1,-2,-1,0
12110186566,5,4,1,-4,-1,-1,1,0
12110186566,3,4,18,7,-4,-5,0,2
12110198544,-3,-7,-28,-11,-5,-4,-3,-4
12110198544,-2,4,5,-2,1,-1,-1,-2
12110207577,-5,-1,-5,-4,-3,2,-1,-1
12110207577,-2,-2,-3,2,7,4,2,-2
12110221879,0,-2,7,3,-8,-3,-1,1
12110221879,-1,4,-1,3,0,-2,-3,-1
12110228557,0,-7,-2,-8,-3,-3,-3,0
12110228557,-1,0,-9,3,4,2,1,-1
12110245352,-4,2,13,6,-2,1,1,0
12110245352,6,-1,-10,-13,-1,1,0,-1
12110251151,0,3,13,1,-3,-2,-2,-1
12110251151,-2,-1,-8,3,2,-2,-3,0
12110258658,-1,-4,2,15,4,0,-1,-1
12110258658,-1,-1,0,-4,-6,-6,-2,0
12110267531,-3,-1,-13,-12,-7,-3,-3,-2
12110267531,-4,-2,3,-2,-3,-2,0,0
12110281759,2,2,5,-5,2,2,1,2
12110281759,-2,-8,-4,0,-3,0,-2,-1
12110288648,-2,-2,-3,1,6,3,-1,-3
12110288648,-1,1,-3,-7,-4,-3,-2,-2
12110304892,2,0,-1,-3,-6,-5,-3,-2
12110304892,-3,2,1,5,1,-1,1,1
12110306533,-2,-7,-3,1,-3,-3,0,-2
12110306533,1,2,-5,-8,-4,-2,-3,1
12110318681,4,2,8,-3,-3,0,1,-1
12110318681,-2,0,7,2,4,3,0,-3
12110327496,0,8,1,3,0,-1,1,-1
12110327496,-4,-15,-11,3,-1,-3,-1,0
12110341722,-2,4,2,-9,-3,-3,0,1
12110341722,0,0,-9,16,3,-1,-4,0
12110348613,-6,7,7,15,-8,-1,0,0
12110348613,3,-8,-4,-22,5,1,-1,-3
12110364378,0,-3,-3,3,0,0,-2,-2
12110364378,-1,-4,-1,0,0,-2,-1,-2
12110371194,1,4,-4,-1,-5,-4,-4,0
12110371194,-4,-18,-1,22,-10,-4,-3,-4
