timestamp,emg1,emg2,emg3,emg4,emg5,emg6,emg7,emg8
7203766740,5,0,1,-10,-10,-8,-3,1
7203766740,-6,-4,-1,4,0,-1,-10,0
7203767391,-1,6,-1,-5,-3,-2,8,3
7203767391,0,-6,-2,0,4,2,2,-2
7203768270,-2,-4,-3,1,-1,-1,-1,-2
7203768270,16,9,3,-2,0,-2,0,1
7203769024,10,7,-1,-3,-2,2,-6,2
7203769024,-10,-4,0,1,0,1,4,-2
7203779711,-11,0,1,-2,-4,0,0,-3
7203779711,-12,-8,-7,-12,-13,-10,-8,-6
7203789083,6,-2,7,15,5,-1,-3,1
7203789083,7,-3,-6,-5,10,10,10,6
7203794680,2,13,5,12,5,4,-2,-1
7203794680,0,-3,-9,-11,-1,-3,-1,-5
7203810374,-17,-7,-5,-18,-18,-12,-9,-6
7203810374,-6,2,1,9,-4,-8,-4,-2
7203818400,8,-8,-6,-3,0,3,-1,1
7203818400,-3,-6,3,0,-4,-3,3,0
7203824699,3,-1,-4,6,7,0,-8,-3
7203824699,-3,0,3,-3,-1,0,11,-2
7203839768,4,-4,0,-26,-1,3,1,0
7203839768,-1,3,-7,17,-1,-4,-7,-1
7203848259,-3,1,-2,-12,-8,-3,0,-1
7203848259,-8,-6,2,3,0,2,-4,-5
7203887814,-2,-7,-4,-5,-3,-3,-5,-3
7203887814,2,6,2,-1,0,-2,3,2
7203888791,5,-2,-4,-2,1,-2,-4,0
7203888791,-3,-9,-3,-3,-5,-1,-2,1
7203889464,-8,6,6,5,3,-2,0,-1
7203889464,-8,-13,-10,-11,-8,-7,-13,-5
7203892666,1,-10,3,2,-3,-1,27,3
7203892666,0,1,-6,-5,-1,-5,0,-2
7203899514,5,8,4,3,4,6,-3,1
7203899514,0,-9,5,8,3,3,10,-2
7203907708,-5,-7,-4,-3,-1,-3,-16,-4
7203907708,3,22,8,3,-1,-1,8,-1
7203914448,-3,-5,-8,-6,-3,-3,0,-3
7203914448,2,-1,-1,-2,-3,-2,-16,2
7203930186,-4,11,-2,2,-1,-1,-2,-1
7203930186,4,-6,1,-4,0,-2,7,-6
7203937053,-5,-19,-1,-5,-5,-8,-44,-2
7203937053,0,7,0,3,3,1,22,-3
7203944541,-17,-1,-1,-4,-2,1,-22,-2
7203944541,1,-8,-4,2,1,1,4,-4
7203959484,4,6,-1,3,2,0,3,3
7203959484,1,26,-3,-4,1,-3,-3,-1
7203967619,2,-7,0,-1,0,1,1,-3
7203967619,3,-16,-7,-7,-7,-33,-11,-13
7203974476,14,18,1,2,3,42,74,28
7203974476,-17,-29,-2,0,2,-3,-6,-1
7203990180,4,-32,0,2,0,-4,7,-6
7203990180,-8,27,0,3,2,-3,-29,-1
7203997025,-15,-3,-1,-1,-2,-13,0,-8
7203997025,-4,-25,-3,-4,-7,2,-5,-7
7204004370,3,39,0,0,2,0,2,4
7204004370,-2,-6,-1,-1,-3,6,-9,-8
7204019496,12,-7,1,-3,0,-10,-5,2
7204019496,5,9,11,7,1,9,1,8
7204027699,-9,16,-3,1,-2,-5,-9,-7
7204027699,19,-6,-17,-6,-3,9,4,8
7204034503,-34,-41,-11,-14,-10,-9,-13,-7
7204034503,16,43,8,6,6,-5,3,-1
7204050065,-9,-38,-15,5,-10,-1,-1,-4
7204050065,-16,-1,25,7,2,1,0,-3
7204056996,-7,25,12,-23,-6,-4,1,-2
7204056996,28,-14,-78,-18,-9,-7,-11,-3
7204073366,-13,-31,24,40,2,-4,-3,-4
7204073366,-8,-13,-8,-34,-2,16,9,4
7204079476,26,40,71,45,30,-2,-7,-4
7204079476,-27,-64,-11,-20,7,9,6,3
7204088391,26,13,-6,-29,-16,-3,-3,1
7204088391,-5,-44,1,21,1,-4,6,9
7204094398,2,39,21,-28,-19,-10,-10,-9
7204094398,9,19,-15,51,17,5,5,0
7204110917,4,4,-15,-19,6,5,7,-1
7204110917,-14,52,37,7,-2,2,-4,-1
7204116897,-7,-86,-60,-12,-3,4,5,-5
7204116897,3,30,26,-8,-10,-9,-1,10
7204133369,5,53,-15,-14,-5,-3,-6,-5
7204133369,13,11,-14,7,5,3,5,0
7204139354,-11,22,13,17,-4,-22,-13,-10
7204139354,-12,64,-14,-27,-20,3,-5,21
7204148342,25,73,10,20,19,17,22,-7
7204148342,-12,67,22,12,21,25,21,14
7204154469,-37,-73,-36,-5,3,2,-13,-20
7204154469,-2,-58,19,-6,-4,-10,-6,1
7204178992,6,8,12,-17,-28,-21,-16,4
7204178992,7,-26,-22,-11,-14,-6,-15,-6
7204179954,-2,-23,-5,4,16,16,12,3
7204179954,-28,-15,17,21,-1,6,-10,-15
7204193391,14,-28,9,14,23,8,7,16
7204193391,3,-60,-19,19,0,-14,-1,-6
7204199383,5,-12,-32,-29,-18,-17,-17,3
7204199383,5,-5,12,-11,-38,-4,-4,-11
7204208309,-32,-51,2,-2,11,-1,-1,-8
7204208309,4,-26,0,6,6,-7,0,4
7204214388,13,20,14,-1,-15,2,1,7
7204214388,2,-8,3,29,26,4,6,-9
7204230878,-5,-38,-13,-13,-15,-4,6,3
7204230878,-4,3,-18,-18,-8,-9,-12,-3
7204237091,10,24,8,1,-12,9,8,4
7204237091,-6,-33,2,9,1,7,4,-7
7204253413,-9,-11,-7,0,21,7,0,1
7204253413,14,16,32,44,11,7,-1,6
7204259500,15,18,-39,-35,8,1,1,0
7204259500,-1,2,10,-5,12,-18,0,-1
7204268388,-10,-4,-16,-28,-13,16,-2,-4
7204268388,-15,-9,-4,-21,-9,-11,0,-9
7204274508,0,-4,14,24,-9,-4,-3,-2
7204274508,1,12,3,-5,0,1,3,-2
7204290895,-7,-15,-13,16,3,-11,-11,-4
7204290895,-6,-1,1,-23,-17,-3,-2,-3
7204296947,0,16,11,37,3,-9,-5,-4
7204296947,2,12,3,-24,8,4,2,3
7204313362,4,4,0,-1,7,-1,1,-1
7204313362,5,-2,-8,2,1,9,3,3
7204319407,-5,5,0,-2,-2,-1,0,-1
7204319407,7,11,13,5,2,-8,2,1
7204328464,-3,7,5,3,-7,-3,5,1
7204328464,-4,1,-5,-8,10,19,-4,-4
7204334464,11,12,7,2,1,-17,1,5
7204334464,5,-6,-5,0,-2,17,-12,-3
7204350910,-1,-2,1,-5,3,13,-20,3
7204350910,4,-5,-11,-7,-7,-18,0,17
7204356878,-18,-17,1,4,7,-6,25,19
7204356878,1,-10,-2,-5,-8,16,-3,-42
7204373370,7,4,3,-1,-7,-10,-45,-4
7204373370,-7,5,-2,-2,0,-3,7,1
7204379417,-3,-16,-5,-4,-1,5,-1,-2
7204379417,-10,6,-1,-5,3,-16,-40,11
7204388358,17,7,8,6,0,0,39,8
7204388358,6,14,4,4,-6,0,-5,-6
7204394496,-12,-1,0,-1,3,2,1,-5
7204394496,-17,-4,-6,-5,-4,-4,2,-5
7204410909,7,12,7,2,-4,-3,6,2
7204410909,17,-2,-7,-6,-1,-5,-11,5
7204416959,6,-13,1,-4,-2,1,-7,-12
7204416959,-4,6,2,-4,-7,-1,12,6
7204433379,-11,-3,-19,7,-3,-7,-8,-5
7204433379,10,17,-10,-18,-4,-3,5,-6
7204439460,18,31,13,-3,-9,1,-5,5
7204439460,-22,-30,-16,-9,9,4,5,-3
7204448363,-16,-12,10,16,7,-1,6,-2
7204448363,-18,-15,2,10,3,4,-2,-7
7204454438,10,17,13,-13,8,7,-4,-2
7204454438,-11,-4,-16,0,-13,-19,-4,0
7204470908,2,7,-7,-17,-12,-8,2,-1
7204470908,-7,17,-4,-16,-11,-4,-2,-7
7204476940,4,-38,-28,36,19,5,-6,-1
7204476940,26,-13,22,7,-10,-11,4,9
7204493319,-6,16,-12,-11,7,9,7,-1
7204493319,-8,-39,21,4,-3,1,-3,-4
7204499396,-11,-8,2,13,1,-1,-3,-1
7204499396,4,-11,-21,-18,-11,-9,-13,-8
7204508375,14,27,18,-6,-12,-3,-3,0
7204508375,15,3,17,4,1,2,-1,9
7204514436,-19,72,3,12,8,4,1,-8
7204514436,7,-13,-3,15,10,3,30,10
7204530839,13,31,13,-27,-14,-7,-22,1
7204530839,-38,-6,-28,-13,-2,2,3,-9
7204536983,27,17,1,-18,-2,-11,-4,0
7204536983,-23,8,9,27,1,-9,-5,-3
7204553341,-9,-20,-5,-34,1,23,12,-6
7204553341,11,7,5,28,10,-15,-5,-1
7204559485,4,-11,-8,-22,-27,14,-2,-2
7204559485,4,5,17,28,13,7,7,0
7204568322,-11,-37,-10,12,16,-14,2,4
7204568322,3,-17,-12,-16,-20,0,-11,-6
7204581981,7,-7,0,2,2,-7,0,0
7204581981,-19,12,4,-13,-6,-3,-4,-2
7204590811,-10,-20,-10,12,1,2,-2,-8
7204590811,3,-6,5,11,-10,-5,4,-1
7204597052,7,-8,-6,-14,3,2,3,1
7204597052,6,10,-13,-3,19,12,0,0
7204613321,-13,-10,-8,4,-42,-13,-5,-7
7204613321,5,4,-7,-3,20,0,1,2
7204619486,2,-6,-7,7,0,32,15,8
7204619486,-7,-3,10,-20,16,-2,0,-5
7204628324,2,-10,36,52,-13,-7,1,2
7204628324,1,-9,-25,-25,10,-10,-1,-3
7204641983,-26,-31,-9,-32,-13,-3,-7,-10
7204641983,14,17,9,-9,-19,-8,1,4
7204650904,-3,12,-14,-1,37,8,-5,-7
7204650904,3,6,-9,14,-12,12,15,6
7204657011,-6,12,4,11,8,-27,-9,-3
7204657011,-22,-37,12,17,-30,-2,-6,-11
7204672064,5,3,13,18,6,-13,-1,1
7204672064,-6,7,-3,-36,15,11,-3,-4
7204679480,-3,-10,-19,-25,1,4,2,0
7204679480,17,26,-3,-4,-17,-12,-4,4
7204688337,-9,2,-4,-6,-3,-5,-6,-2
7204688337,-1,15,15,22,18,22,8,-2
7204701900,9,19,5,11,-7,-20,-1,3
7204701900,2,4,-1,-15,-2,9,0,-2
7204710835,-3,-7,7,-8,-7,3,2,0
7204710835,6,-2,-8,-4,-4,-14,-9,3
7204717037,-11,-11,2,-6,-12,-18,-7,-16
7204717037,12,-1,-16,-10,0,13,1,8
7204731919,-6,-19,-10,-10,6,-12,6,-1
7204731919,-8,-6,5,7,-3,-4,-9,2
7204739475,-5,-4,4,7,-1,7,11,1
7204739475,10,12,-4,-10,3,-17,-14,-5
7204748328,7,-4,2,1,5,0,22,5
7204748328,-9,-40,7,4,-1,16,-45,-1
7204761842,-11,-30,1,2,2,5,-2,-5
7204761842,8,-6,-11,-8,1,-15,12,2
7204770845,-1,-14,-5,-4,2,7,-10,1
7204770845,-9,-14,0,-3,-13,-18,-30,-12
7204776895,19,1,1,4,5,7,14,11
7204776895,-31,-10,1,7,9,16,5,-5
7204791860,12,1,-4,-19,-15,-11,0,2
7204791860,-16,22,1,12,0,-11,7,-7
7204799458,-20,-12,5,-3,-3,2,-21,-6
7204799458,13,-21,-14,-2,4,-1,0,-5
7204814475,28,62,6,3,3,8,2,7
7204814475,1,32,4,-2,-5,6,17,4
7204821951,12,20,14,10,-4,-15,2,8
7204821951,-16,1,-4,-3,4,11,1,-3
7204830814,8,-38,26,7,-4,0,-17,-5
7204830814,-23,91,-50,-32,7,-13,16,-10
7204837024,36,-59,-3,2,-2,14,7,13
7204837024,-15,80,27,19,9,-2,-14,7
7204852007,48,-64,-24,-13,5,5,1,5
7204852007,-42,26,17,5,-4,6,22,0
7204859486,17,76,44,15,-2,-6,4,0
7204859486,35,-86,-69,-20,-1,6,2,4
7204874321,-63,97,-23,5,-6,-5,1,-9
7204874321,62,-19,-23,31,10,15,20,16
7204881849,-87,-17,-81,-36,6,-5,-8,-28
7204881849,98,34,72,39,1,-1,-11,27
7204897476,-16,93,-30,-29,-15,-5,12,4
7204897476,-8,7,2,-23,1,-5,-11,-1
7204898258,-11,8,10,38,-6,-3,-10,-5
7204898258,-57,-26,23,9,-18,-3,-8,-25
7204911823,-12,2,33,6,27,11,0,-4
7204911823,29,-24,-13,-6,-6,-8,0,6
7204919330,21,5,44,-1,-7,0,0,12
7204919330,-4,10,-8,-14,-14,-20,-4,-3
7204934316,-6,-24,4,15,-8,3,-6,-6
7204934316,-9,-35,21,28,21,15,6,4
7204941931,4,24,9,7,-1,-15,6,-5
7204941931,-22,32,4,4,22,3,3,-9
7204957632,4,36,-1,22,0,18,-48,18
7204957632,0,-5,-3,-54,-31,-4,2,-12
7204958369,-7,-59,-29,-17,-50,-26,-24,-9
7204958369,-7,-25,-22,-7,27,17,27,1
7204971961,12,-53,17,56,64,3,3,1
7204971961,3,-42,12,25,18,15,-8,-6
7204979482,-16,-23,0,2,-9,-16,14,-11
7204979482,0,-20,-19,-34,-32,-17,-48,-3
7204994429,-3,-23,-2,-17,-13,-11,37,4
7204994429,1,-25,9,20,-4,8,2,0
7205001847,6,9,-5,-35,0,-3,3,0
7205001847,-5,6,-13,-1,4,-19,5,-1
7205017634,-4,-30,-9,-23,-3,-3,-1,-7
7205017634,0,12,10,7,-20,-11,-4,2
7205018289,-1,8,-11,-8,17,17,-1,0
7205018289,3,11,-2,-3,0,3,7,4
7205031971,-20,-17,5,5,1,1,-2,-8
7205031971,4,8,-16,-26,-16,-8,-4,-1
7205039455,8,32,0,-9,31,16,-3,8
7205039455,1,15,-17,-7,-8,0,-1,1
7205054484,7,26,4,19,-15,-6,4,-6
7205054484,-18,11,13,-11,-8,-12,-7,-10
7205061980,5,-6,-3,-3,-4,2,1,6
7205061980,11,14,-5,-4,-13,-21,-3,1
7205077545,6,-15,-5,-17,-8,12,-2,-3
7205077545,-14,-25,6,-18,13,-6,-2,-2
7205078279,2,-8,-5,26,12,1,-6,2
7205078279,-1,-21,0,9,2,12,2,-1
7205100040,-3,-8,-2,-14,-14,-14,-11,-4
7205100040,9,-5,1,5,-7,5,-5,2
7205100939,0,-3,-6,-13,-7,-19,-7,-2
7205100939,1,8,7,0,3,7,7,-2
7205114427,-10,-7,-3,1,-3,-8,-3,-3
7205114427,-4,-5,-4,3,7,10,11,1
7205121852,21,16,-3,9,5,10,-7,4
7205121852,-3,0,0,-3,-4,-2,4,1
7205137611,-8,-10,-8,-10,-2,-6,-11,-2
7205137611,-6,-5,2,4,-4,-12,-15,-1
7205138261,2,1,-3,0,1,14,14,1
7205138261,-7,1,4,1,-4,-11,4,-1
7205159985,10,-3,-2,-10,-7,7,4,-2
7205159985,9,10,2,5,-1,1,-36,0
7205160873,-4,2,-5,6,3,7,1,-2
7205160873,-18,-20,-3,-8,1,9,2,-2
7205174394,-18,-8,-3,1,-7,-15,-3,-2
7205174394,13,5,-4,-1,0,-7,7,2
7205181896,-9,3,4,4,2,2,-2,-2
7205181896,-3,-21,-4,-7,-3,3,-5,-5
7205197494,9,7,-1,-4,-1,0,1,4
7205197494,8,3,-1,-1,-7,-9,0,0
7205198366,-8,0,0,3,3,4,-1,0
7205198366,3,17,5,-3,-3,-1,-1,-5
7205220015,-2,-1,5,6,5,9,7,1
7205220015,-14,-15,-17,-3,0,-4,5,-3
7205220851,13,1,-6,-1,4,0,-4,-2
7205220851,4,11,-12,-18,-11,-4,-6,1
7205234394,8,-24,-3,6,-3,-5,-2,0
7205234394,-30,38,12,3,1,-3,6,1
7205241946,-15,-30,-3,1,-10,-4,-6,-6
7205241946,10,4,22,12,5,3,-4,0
7205257586,-1,2,-30,-43,-9,-5,2,2
7205257586,6,16,5,5,-2,-5,-1,-4
7205258247,1,-2,-9,3,4,3,0,0
7205258247,3,-3,6,2,3,-1,2,4
7205280124,9,7,6,-7,-7,-2,0,1
7205280124,1,3,14,20,7,2,2,-4
7205280789,-15,-41,4,-11,-4,1,2,-1
7205280789,5,1,-2,3,7,6,2,-1
7205294444,-5,-29,-2,7,10,6,20,-1
7205294444,0,-16,-15,-11,-8,-10,-16,1
7205301842,-5,38,14,2,-8,-14,-13,-8
7205301842,-3,35,1,1,-5,9,6,1
7205317627,-12,-3,3,-11,-6,6,-17,-1
7205317627,5,-4,-1,3,4,1,11,0
7205318314,5,4,-4,10,7,1,2,-2
7205318314,5,-12,-10,-8,-1,6,5,5
7205340108,1,17,-2,4,-6,-17,-5,-1
7205340108,7,9,-1,-17,-7,-4,-2,-4
7205340808,-2,7,0,-16,-6,3,-2,0
7205340808,-11,-12,9,16,-7,-15,-16,-5
7205354457,4,5,-11,7,25,17,14,1
7205354457,9,-17,-11,-10,-27,-14,3,1
7205361941,-17,-13,5,-7,-9,2,13,0
7205361941,1,-3,13,22,48,9,1,-3
7205377551,-3,0,-3,-27,-59,-12,5,-1
7205377551,0,-19,-9,11,31,25,9,-2
7205378266,12,7,-10,0,-19,-17,-5,8
7205378266,-4,13,6,-30,-11,-7,21,-7
7205400108,-20,-24,6,0,-10,-2,8,-2
7205400108,3,-2,-3,-4,5,2,-19,-4
7205400827,6,13,-1,20,-18,-27,-31,0
7205400827,-21,-28,-18,-47,-7,0,8,-6
7205414334,27,14,2,-16,-9,6,36,12
7205414334,-22,3,14,31,81,-6,20,-12
7205421838,14,3,1,-31,-51,28,5,2
7205421838,-7,14,35,47,33,18,10,8
7205437576,-17,-3,-39,8,21,-29,-27,-15
7205437576,-9,-28,14,-40,-42,-21,24,-1
7205438269,12,1,-17,-50,16,18,6,0
7205438269,8,7,14,27,-12,-15,-5,0
7205460056,-9,-10,5,-2,-52,6,1,-2
7205460056,6,3,2,53,40,11,-7,2
7205460736,-25,-19,-1,-14,4,-4,-10,-10
7205460736,3,-8,4,-13,-33,6,-6,0
7205474434,-2,-8,-7,10,23,-15,-15,0
7205474434,-2,3,-15,-33,-36,-2,-13,-3
7205481818,-2,7,3,8,0,3,6,-2
7205481818,4,7,-36,-22,16,6,-16,2
7205496965,-1,22,12,14,16,-7,-5,-8
7205496965,13,22,11,-6,-24,3,10,11
7205512667,3,11,8,26,27,-2,-4,2
7205512667,-2,3,-19,7,-4,-17,2,-1
7205520095,11,11,-2,0,2,8,-1,-4
7205520095,-17,-34,2,-4,-12,31,50,4
7205520752,-18,-45,-2,10,18,-2,-13,2
7205520752,-13,-26,-9,3,-10,-8,-2,-3
7205534427,13,3,18,3,9,-7,1,4
7205534427,12,4,-2,1,6,0,-9,7
7205541865,5,33,4,6,4,3,4,3
7205541865,12,-1,-2,3,-1,-2,-31,4
7205556859,0,-15,5,0,1,-3,-14,0
7205556859,16,-3,2,5,-3,-1,-10,-3
7205565081,-22,-17,-22,-7,-10,-20,-10,-13
7205565081,-4,0,5,5,-6,10,1,-6
7205571943,12,-10,3,-19,2,-2,-6,1
7205571943,-12,-8,-26,18,-1,6,-16,2
7205579486,1,-10,3,10,-2,-8,11,-3
7205579486,2,-7,15,-14,0,5,7,3
7205594356,-4,-7,-19,-4,2,3,-8,-3
7205594356,19,15,12,-6,-19,-21,-4,0
7205601892,1,29,-16,-31,5,10,6,3
7205601892,-17,9,-28,18,7,8,6,-3
7205616831,2,40,14,-5,2,12,-2,-4
7205616831,5,1,-10,-12,-9,-7,-11,0
7205625142,-1,13,5,5,2,-5,-1,-5
7205625142,12,-4,15,-7,-15,-9,-5,6
7205631934,-16,16,7,26,8,-3,-7,-10
7205631934,26,-2,-6,-22,-6,0,-2,2
7205639410,-11,-6,-23,19,1,-8,0,-2
7205639410,-2,74,6,0,-1,0,8,-2
7205654407,-18,-103,-10,-2,5,6,-9,-4
7205654407,-5,51,23,15,-9,-10,-13,-6
7205661932,20,-10,-6,-4,18,11,11,4
7205661932,4,15,5,-24,-11,2,21,0
7205676938,14,26,-5,17,10,2,-24,5
7205676938,-5,46,-5,-13,5,1,4,2
7205685030,-10,48,11,10,-14,-15,2,1
7205685030,-8,31,3,9,10,2,-2,-4
7205700137,3,11,-11,-3,0,4,6,0
7205700137,-8,-36,-12,-15,-9,-2,-6,-5
7205700771,-1,-33,13,8,-7,-35,-11,-3
7205700771,1,-35,1,0,16,24,3,-6
7205714473,-4,-47,-12,-25,-16,-4,-15,-2
7205714473,-25,-38,2,40,17,1,-7,-7
7205721988,7,-3,-6,-14,-9,2,1,1
7205721988,9,-40,-7,8,-10,-8,-41,2
7205736972,-2,13,10,-22,-1,-3,30,-2
7205736972,-6,1,6,37,18,15,13,-1
7205745108,3,-1,0,-22,4,15,-17,-7
7205745108,10,-13,2,6,7,-17,-4,6
7205760109,15,21,-11,-12,-9,10,4,4
7205760109,-25,-10,0,-10,12,-4,-5,-5
7205760775,-7,-26,8,-6,-18,-11,5,1
7205760775,2,-1,-8,15,-20,10,5,-5
7205774455,-15,-4,-2,0,32,3,4,-4
7205774455,14,-5,-7,2,10,-19,4,-1
7205781922,4,0,2,-6,-27,-4,-20,-5
7205781922,-6,3,2,-17,-3,-14,2,-2
7205796907,-7,4,16,59,17,3,-2,-6
7205796907,1,-4,-14,-39,-22,3,-10,1
7205805108,-1,-9,-22,-30,20,20,11,3
7205805108,-5,-5,4,17,-13,-15,0,-3
7205820129,-7,0,-22,-19,-16,-6,-2,0
7205820129,6,12,24,39,-2,-4,-5,-4
7205820805,-6,-11,-1,12,7,3,0,-2
7205820805,-1,-12,-4,56,42,22,14,1
7205834433,11,24,28,-5,10,-2,2,8
7205834433,-10,-18,-46,-74,-44,-29,-8,-4
7205841883,3,11,12,-8,-8,19,10,0
7205841883,-7,-12,-13,-8,16,-13,-7,-8
7205856919,-9,3,17,13,-28,2,-6,-2
7205856919,7,20,11,4,24,-3,3,3
7205865110,8,5,4,18,1,18,8,1
7205865110,-1,2,-14,2,9,-14,-5,3
7205880058,-7,10,6,-10,-13,-2,-1,-1
7205880058,-6,5,-2,-18,-5,-17,-14,-8
7205880754,9,13,-5,14,-1,1,10,0
7205880754,-5,0,4,-18,-12,10,-26,-1
7205894408,15,4,-11,-10,1,-11,-6,0
7205894408,-11,-12,8,20,2,36,-15,1
7205901810,1,-18,1,8,8,-20,-4,-1
7205901810,-5,-19,-10,-24,-17,-7,-3,-4
7205916916,-10,-8,-1,-8,-4,-8,-5,0
7205916916,-7,-5,3,0,-3,-3,9,-1
7205925114,16,4,2,2,2,6,6,-2
7205925114,10,9,-6,-17,-1,-4,-7,9
7205939989,-21,-8,0,4,-11,-6,2,-4
7205939989,8,-29,4,5,3,11,1,1
7205940896,-14,-35,-5,-5,6,-6,9,-3
7205940896,-10,-31,-3,0,-11,4,23,0
7205954468,25,-10,-4,-1,3,-2,-6,0
7205954468,-22,-14,2,-5,-7,-9,5,-2
7205961882,-14,23,-2,-9,0,3,-7,-4
7205961882,27,7,-3,-4,-4,6,6,7
7205976895,-23,-1,9,-2,5,7,1,-2
7205976895,5,-1,9,6,4,-1,10,1
7205985079,5,8,-7,-9,-3,-9,-7,5
7205985079,7,-15,-12,-18,-8,-6,-2,-5
7206000065,-9,49,17,7,-10,3,4,0
7206000065,18,16,-11,-10,-5,-4,-7,0
7206000799,-17,9,-20,-10,15,6,2,-4
7206000799,4,41,18,4,-5,2,1,5
7206014418,-35,-40,4,0,-6,-6,-2,-10
7206014418,2,7,-46,-23,-4,3,-3,-7
7206021879,-5,14,12,11,-3,-4,-5,9
7206021879,3,6,-11,-7,-4,-7,12,-6
7206036945,33,76,26,2,-8,-5,-20,3
7206036945,-29,-15,-9,1,-6,-4,-8,-9
7206045083,21,62,15,17,4,-3,-3,3
7206045083,-9,-42,13,-34,-17,-9,-1,-1
7206059851,-10,-55,-28,24,21,9,6,0
7206059851,6,69,17,-6,-5,-3,0,-2
7206067611,-9,-47,-12,9,-1,-5,-5,-2
7206067611,-20,58,4,8,-7,-3,-7,-8
7206074305,3,-34,-35,-14,-2,-5,-3,-5
7206074305,-9,-25,-10,11,15,10,9,6
7206081826,19,38,36,-1,0,0,-2,6
7206081826,-4,63,-4,0,-9,-6,-8,-10
7206096878,7,16,-7,-4,-3,-1,17,1
7206096878,5,-42,-3,6,1,-6,-17,-2
7206105108,-3,-34,25,6,4,7,5,3
7206105108,-8,-104,-14,-2,4,-18,-1,0
7206120162,25,52,8,-6,-3,21,1,3
7206120162,-14,-6,10,-11,-7,-14,8,-1
7206120765,-10,-29,-15,-16,-12,-2,-3,-7
7206120765,-6,-20,-4,8,22,-25,-25,-18
7206142581,2,-14,-10,-5,-16,20,43,-10
7206142581,15,1,19,28,29,11,-53,28
7206143298,2,10,4,30,19,20,-17,-8
7206143298,-10,-11,-38,-59,55,-17,-1,0
7206156828,-8,-11,16,19,-24,6,-4,-4
7206156828,9,-10,-5,4,-19,10,-8,-3
7206165116,11,-1,0,38,15,-37,-12,-6
7206165116,-2,16,14,27,8,39,27,7
7206180563,-14,-11,3,1,37,-14,-27,-8
7206180563,1,-8,24,-10,-10,15,16,-1
7206181189,-20,-35,-49,-29,-20,-13,4,-4
7206181189,4,-2,-9,-24,-32,-9,10,2
7206202474,0,-14,-21,-8,19,-13,-14,5
7206202474,8,15,4,7,6,13,29,-1
7206203246,6,12,3,-1,-35,-15,3,-1
7206203246,-2,-4,-7,-23,5,-21,-18,-4
7206216917,-4,5,18,24,42,-25,0,0
7206216917,-4,0,-38,-83,-69,62,11,-3
7206225100,1,-2,6,49,88,0,12,6
7206225100,8,3,-12,32,47,-2,-5,6
7206240102,2,11,29,-6,-83,-20,-12,-1
7206240102,-5,-2,-44,-18,-66,5,6,-7
7206240744,-2,-1,11,31,72,-5,3,0
7206240744,-7,-4,8,7,-76,59,8,0
7206254413,4,0,5,1,-5,-12,-5,2
7206254413,1,0,21,16,13,-51,-14,-4
7206261910,-7,-7,-12,-47,-53,-24,7,-4
7206261910,16,8,19,33,14,12,-5,5
7206276883,-4,-4,-15,-12,10,-12,-6,-1
7206276883,-12,0,-2,-3,8,-11,14,-13
7206285092,3,3,4,3,6,23,24,16
7206285092,-1,-1,8,-10,-8,-1,19,-3
7206300135,0,-2,-8,-11,-8,22,-89,6
7206300135,9,4,17,24,42,-24,84,0
7206300757,-15,-23,-16,-23,-39,-9,-27,-6
7206300757,15,-5,4,8,-6,10,39,9
7206314406,-8,-8,-17,-15,4,14,3,-2
7206314406,-24,-5,6,23,24,-15,-43,-7
7206321891,7,-4,1,-11,-14,15,2,-9
7206321891,-12,2,-1,-10,-20,-26,-17,-1
7206336910,27,-9,0,5,19,6,15,4
7206336910,-20,-24,0,-1,9,-6,-1,-5
7206345065,6,18,-2,-16,-22,-3,6,1
7206345065,1,-1,2,11,15,-1,-23,-5
7206360056,14,0,-3,-3,-3,-6,33,7
7206360056,23,14,6,-3,-1,1,-22,0
7206360684,-29,-6,27,1,-18,5,-14,-5
7206360684,-1,-20,-25,5,6,-7,-16,-1
7206374380,23,6,26,-35,-10,15,10,1
7206374380,-18,19,-51,-3,15,0,1,5
7206381800,-23,-31,-92,-29,-9,-8,-14,-10
7206381800,-15,-2,40,9,-6,28,6,-7
7206396890,16,42,43,12,-11,-11,12,8
7206396890,0,24,-18,-28,-10,-16,-11,-7
7206405108,13,-45,38,63,23,27,13,5
7206405108,-39,-42,-83,-32,-4,-10,-21,-4
7206420071,-18,22,-24,-20,-4,-5,-8,-14
7206420071,10,-46,3,4,3,2,-13,4
7206420729,-1,65,18,11,-3,-6,-18,0
7206420729,14,-116,42,6,-10,-4,-4,0
7206434334,-20,16,-16,30,12,-3,2,-2
7206434334,9,-10,13,-10,-6,-7,18,-5
7206441810,-10,-18,49,-9,-10,1,-16,-1
7206441810,41,101,30,0,7,2,8,14
7206456903,-20,29,-30,-6,-13,-19,-10,-11
7206456903,-2,-96,23,8,5,14,11,8
7206465014,-10,68,14,-14,12,11,-3,-9
7206465014,17,68,-18,4,-9,-10,0,3
7206479383,-22,-3,-29,-27,20,1,2,-5
7206479383,23,72,31,80,-8,-1,-7,4
7206487518,4,-35,-1,-34,-6,-5,0,-5
7206487518,-20,-3,-16,-17,-5,-22,-10,-10
7206494412,16,35,9,-33,-32,16,28,10
7206494412,-1,-9,-12,-8,17,-15,-23,0
7206501769,5,63,-6,36,16,5,8,7
7206501769,-11,17,20,-14,-19,14,-9,-7
7206516926,-2,-60,10,35,52,-14,8,-3
7206516926,-1,3,-23,-36,-58,-12,-22,-14
7206525033,2,-37,5,-19,-39,4,1,15
7206525033,10,-9,6,53,93,32,83,12
7206539399,-10,-51,8,5,7,8,-1,4
7206539399,-19,-8,5,30,15,-6,-4,-7
7206547569,17,-25,-6,-14,-8,-25,-13,-9
7206547569,-3,-22,0,-31,-27,-16,-22,-7
7206562461,-1,-20,-3,11,-15,4,-7,-2
7206562461,-3,5,-13,-40,23,5,13,-6
7206563319,-4,-27,-24,-8,-10,7,0,-4
7206563319,0,17,24,11,5,-2,-9,3
7206576870,-13,-25,1,12,9,-4,-1,-3
7206576870,17,18,23,-3,-11,5,-11,3
7206592608,-3,0,18,31,12,6,9,2
7206592608,-8,-6,-10,-21,1,5,1,-2
7206599423,-1,-11,-36,-28,-11,-8,-15,-4
7206599423,-5,11,4,16,-4,4,6,6
7206607554,12,17,-19,-26,5,-3,11,0
7206607554,-7,16,38,54,-22,-4,-14,-8
7206622578,-10,-33,-27,-50,-8,3,2,-4
7206622578,-2,13,9,22,26,-5,3,4
7206623245,-2,-22,-28,-14,-22,-3,-4,-4
7206623245,6,-5,-11,-8,-17,-8,-12,-5
7206636783,0,12,23,16,-1,-2,3,3
7206636783,-11,-9,-11,6,20,8,7,-1
7206645083,7,-5,17,21,4,-4,-5,-1
7206645083,-16,-10,-37,-42,-15,-6,-8,-6
7206659327,3,-1,5,14,-3,4,0,0
7206659327,4,0,4,-15,-7,4,5,-1
7206667547,4,9,-1,8,-6,-3,-5,0
7206667547,-6,-4,-13,-13,-8,-9,3,-5
7206681907,1,-1,11,13,9,5,-15,-3
7206681907,-7,-7,-9,-3,-10,-4,-13,0
7206690760,-2,-2,-3,-9,9,-7,5,6
7206690760,7,3,-3,5,1,13,27,3
7206696820,-2,5,-5,0,-2,1,10,0
7206696820,-2,-7,8,0,-8,-10,-12,-1
7206705730,10,3,-4,-10,2,2,1,-5
7206705730,-11,3,4,0,0,-15,-18,-4
7206719388,-7,-6,-2,9,-8,-1,4,0
7206719388,1,1,-6,-12,4,9,-1,-6
7206728290,6,1,5,-3,3,-3,-16,1
7206728290,1,-19,-11,2,-6,-7,10,5
7206741887,25,24,9,4,2,11,6,3
7206741887,0,24,7,-3,0,-6,-3,2
7206750761,-17,-1,-3,-5,-2,0,-6,-11
7206750761,2,-7,-1,13,1,-1,-11,1
7206756904,-5,-8,-1,-3,-4,-7,-6,-2
7206756904,-5,1,-5,-12,-7,-7,5,-6
7206765791,21,22,15,7,-2,1,3,4
7206765791,1,-19,-1,12,21,17,6,2
7206779386,-19,14,-10,0,-2,-6,6,-3
7206779386,13,1,-12,-26,-5,2,-5,3
7206788271,3,-19,-6,-11,-6,-3,4,-1
7206788271,-21,21,16,-14,-9,-10,-17,-5
7206801795,0,3,-1,6,-2,-1,-4,-2
7206801795,-5,-3,5,25,9,3,6,-1
7206810751,22,8,17,6,-11,-5,-1,4
7206810751,-6,-16,-24,-9,7,2,-2,-2
7206816823,-2,13,6,-16,-2,0,0,-1
7206816823,0,6,-11,-5,-5,-5,-4,0
7206825787,3,-17,-10,3,7,9,8,2
7206825787,12,50,-2,-2,-3,-6,-10,-3
7206839360,1,0,12,-2,-6,-4,-3,-2
7206839360,-15,-23,-8,5,1,-3,2,3
7206848245,-7,-4,-11,0,14,9,2,-1
7206848245,-9,2,14,3,-8,-1,-3,-8
7206861840,13,4,2,0,2,0,-1,7
7206861840,5,-23,0,13,-10,-4,-1,0
7206870771,-40,-38,-11,8,6,-27,-5,-12
7206870771,16,20,17,7,-11,24,1,3
7206876914,-10,13,-25,-21,0,-5,-5,-2
7206876914,-5,-3,16,17,13,8,9,-4
7206885737,11,38,-4,-17,7,-17,-13,4
7206885737,-2,-12,-4,-6,-11,0,18,-3
7206899455,18,-15,0,22,9,25,0,9
7206899455,-8,9,5,-4,0,-2,33,-2
7206908239,-20,-15,-1,11,-6,-5,6,-4
7206908239,12,4,6,-8,23,-8,-27,-1
7206921803,14,-18,1,8,-34,-20,8,-2
7206921803,-25,-13,3,-21,16,26,-16,-7
7206930735,7,3,-1,4,-1,-24,-17,-3
7206930735,-19,-17,3,-11,-18,9,4,-3
7206936862,15,-3,-7,17,9,-8,-4,0
7206936862,16,5,3,15,1,-27,-10,4
7206945781,-4,-1,-3,-25,-33,27,5,-6
7206945781,-4,-15,-33,-11,26,-5,-7,-1
7206959410,-24,-16,-8,9,55,-17,-17,-17
7206959410,4,-8,-18,-31,-82,2,-5,4
7206968226,-12,-8,21,18,47,-9,8,-3
7206968226,-7,-8,-3,-1,-27,30,-7,-1
7206981804,-5,-9,15,44,-6,5,8,-7
7206981804,13,3,-15,-53,9,-1,-8,4
7206990800,11,21,-13,-31,2,-6,22,5
7206990800,1,0,6,40,-20,-7,-30,5
7206996744,-4,10,15,18,16,17,18,-1
7206996744,5,12,31,-10,-13,-6,-12,-2
7207005712,9,10,9,17,-14,4,-4,8
7207005712,-11,-18,-16,-30,-5,-19,-6,-7
7207019221,-14,-10,-34,-59,-17,18,2,0
7207019221,0,-13,-11,27,22,-6,-2,-4
7207028359,3,3,13,27,11,16,9,3
7207028359,5,4,-21,-13,7,-21,14,0
7207041858,-3,-4,22,9,-26,-9,-6,0
7207041858,-11,-1,-21,-40,2,8,-3,-8
7207050694,-11,-15,-21,3,-7,-6,-10,-6
7207050694,3,6,13,30,-3,7,2,0
7207065592,2,0,-16,-33,-10,-16,-12,1
7207065592,-2,13,7,18,14,-13,5,-1
7207067211,-7,-3,-1,-13,-11,30,-15,-8
7207067211,15,12,12,4,0,-6,4,2
7207079410,-16,-9,-6,-16,1,-11,-5,-6
7207079410,8,6,-2,23,7,-1,5,2
7207088289,6,-7,-4,-16,-7,3,7,-4
7207088289,-3,-14,0,-6,1,-7,5,-1
7207101740,-6,-11,2,6,2,-12,-9,4
7207101740,-23,-16,11,11,1,12,3,-3
7207110745,-7,-11,-8,-5,-5,1,-37,6
7207110745,20,9,2,-7,5,-2,22,4
7207125679,6,-1,-1,-2,-5,-9,-10,-3
7207125679,11,5,9,11,-2,2,6,5
7207127212,-21,9,-4,-9,0,0,-4,-8
7207127212,-7,-7,3,4,1,3,-15,-1
7207139244,13,-14,-1,-6,-7,3,7,6
7207139244,9,-10,-7,-1,1,-9,-2,-6
7207148226,-3,-4,0,-2,-2,9,32,7
7207148226,-20,-18,2,-7,-3,-21,-5,-6
7207161745,12,11,7,4,2,11,8,-2
7207161745,-5,18,-1,9,-3,-11,1,-2
7207170741,23,0,-4,18,7,1,2,1
7207170741,-11,-10,4,1,-2,3,0,1
7207185654,-5,-24,-18,-13,3,2,2,-2
7207185654,10,81,16,0,-6,6,-6,0
7207187168,-37,-89,-48,-3,-7,-12,-6,-11
7207187168,9,17,16,19,5,2,4,-1
7207199369,14,48,7,4,-7,0,-7,5
7207199369,6,-20,6,-14,-6,-4,-5,-4
7207208266,-21,-52,-29,-42,-12,3,1,1
7207208266,-5,-1,9,46,28,2,5,-8
7207222552,-13,46,-11,-13,5,6,13,4
7207222552,-5,48,13,42,-5,0,-26,-7
7207229247,9,-19,53,41,-10,-4,3,3
7207229247,18,-73,-42,-53,7,-1,-6,5
7207236694,-9,16,-24,-53,-20,-7,2,-4
7207236694,21,27,-21,25,11,1,3,7
7207245736,-17,55,49,-9,-7,1,2,-3
7207245736,22,12,2,23,-4,8,4,6
7207259191,-17,-10,-20,5,10,5,-4,-7
7207259191,-1,-38,-33,-22,15,-1,5,5
7207268262,30,39,7,0,-10,-8,4,-2
7207268262,-17,70,17,5,-20,-12,-29,-5
7207282429,10,31,19,14,13,-20,8,13
7207282429,-2,-1,4,-3,6,49,-6,-5
7207289191,-2,24,-5,5,20,-24,10,2
7207289191,9,3,-3,-4,-11,21,-7,-2
7207296713,-11,-48,-6,-15,-25,-5,8,-11
7207296713,-1,-47,13,15,38,-27,-41,-15
7207305751,11,6,9,-30,-8,28,48,25
7207305751,-20,-44,-14,36,39,-3,14,-8
7207319192,-8,-42,16,4,-34,-11,-31,0
7207319192,4,-21,3,24,20,-4,38,3
7207328212,4,-4,-54,-63,-18,-10,-35,-10
7207328212,-7,-7,8,11,-11,-21,-10,-2
7207342417,4,-4,0,-2,18,16,18,-4
7207342417,-8,1,10,-6,-36,-5,0,3
7207349210,6,11,-5,-17,-18,-13,-17,-5
7207349210,5,16,-5,-15,-12,0,9,5
7207356666,-5,3,14,23,33,-4,-6,-5
7207356666,-12,-19,-21,-16,-9,6,-3,3
7207365741,8,12,-5,-11,-12,-12,-10,-3
7207365741,-3,3,-2,-19,-10,3,12,-3
7207379164,1,-7,-3,1,-8,-9,-12,-3
7207379164,-8,0,1,9,21,-16,4,1
7207388234,-8,2,-7,-5,-26,32,1,-8
7207388234,-1,0,-13,-18,4,-17,-4,1
7207402368,-1,3,-4,36,6,18,0,-2
7207402368,2,-3,17,-3,-15,3,7,2
7207409171,-17,-10,-20,23,42,-12,-8,-7
7207409171,4,12,-7,-13,-16,1,-4,1
7207416690,-1,-17,2,-18,-19,2,-3,-1
7207416690,-6,1,4,3,4,-3,7,1
7207425735,-5,-11,5,19,11,5,-12,-5
7207425735,-2,8,5,-24,-17,-1,1,-1
7207439228,0,8,1,5,-1,-8,2,2
7207439228,1,3,-9,-12,-12,9,0,-2
7207448185,1,2,18,25,17,-1,1,6
7207448185,-4,-9,3,-8,-3,-18,-6,-7
7207462391,10,1,-2,1,0,12,-4,0
7207462391,1,-11,-9,-15,-4,4,-2,3
7207469184,0,3,2,9,1,-6,2,1
7207469184,-1,1,-2,0,3,-16,21,0
7207476739,-23,-14,2,-4,1,32,-1,-11
7207476739,-11,-5,-5,-8,-7,-7,21,-1
7207485693,6,7,2,1,-3,2,4,-2
7207485693,-1,8,9,4,3,-10,-7,2
7207499223,14,10,-1,1,0,-1,1,3
7207499223,7,-2,-5,-7,-5,1,-13,-2
7207508205,-7,0,3,5,6,-1,5,-2
7207508205,1,-3,-1,-8,-2,3,-6,1
7207522385,-2,0,3,1,1,-7,-1,2
7207522385,-2,-1,-2,-3,-5,2,-6,-2
7207529221,1,1,3,2,-1,-10,-4,-2
7207529221,4,3,-2,-3,2,7,-4,6
7207536713,5,-8,2,-3,-5,-2,3,0
7207536713,3,-2,2,-21,-6,-11,-4,0
7207545688,-15,-18,-10,29,9,-2,-1,-7
7207545688,-9,-13,-2,-23,-3,11,2,-6
7207559189,6,-3,2,9,4,-1,2,2
7207559189,-9,-2,-3,5,-4,-3,-1,0
7207568197,15,20,15,-11,-5,0,-5,1
7207568197,1,4,-11,-5,-4,4,-1,-2
7207582343,11,13,3,-9,-5,-10,-7,1
7207582343,-16,13,-3,-8,-6,-4,-4,-4
7207589214,-14,-38,-11,0,2,4,0,-6
7207589214,5,17,6,11,0,-1,-3,2
7207605567,-5,2,2,-4,-4,-9,-6,-8
7207605567,-4,10,-2,-2,-11,-5,-4,4
7207607197,14,18,-6,-16,8,0,-4,-2
7207607197,-2,8,8,2,-1,5,4,0
7207619178,-1,-30,-18,-8,-3,-3,0,-7
7207619178,-20,-25,-17,0,0,1,-5,-2
7207628211,4,-18,3,-17,-7,0,3,-3
7207628211,0,19,14,15,4,5,-1,5
7207642395,8,6,15,23,8,-3,-1,-1
7207642395,4,-4,-2,-13,-2,-3,0,-3
7207649189,9,5,5,15,1,-4,-2,9
7207649189,-9,-6,-11,-19,-4,2,9,-6
7207665533,-7,-6,1,5,-4,5,-3,6
7207665533,15,9,5,4,15,6,-6,-4
7207667185,-2,31,7,1,-3,2,0,-1
7207667185,4,1,-3,5,-12,-13,-16,-5
7207679191,-12,6,-10,-13,-1,-5,9,0
7207679191,6,-11,-1,-5,-6,1,-2,-1
7207688248,-15,-5,-4,1,-4,-5,-2,-3
7207688248,8,-18,-3,7,37,6,-8,0
7207702330,-3,2,-4,-5,-22,4,1,-3
7207702330,0,-11,1,14,12,1,1,-2
7207709196,5,2,1,-5,-11,-2,0,0
7207709196,-4,-9,-8,-12,-23,-19,-4,-4
7207733046,-7,-1,2,17,18,3,-3,0
7207733046,1,5,7,-5,-27,-5,0,-2
7207734680,-3,-2,17,32,16,0,-1,-2
7207734680,2,-12,-32,-15,34,9,0,0
7207739176,2,11,13,-8,-38,-9,-6,-1
7207739176,-9,-10,-9,6,43,3,5,-3
7207748205,5,-6,-6,13,8,9,-1,1
7207748205,-1,3,33,-4,-38,-30,-13,-6
7207762363,-3,4,-22,-46,-36,5,3,1
7207762363,-6,-16,-23,71,59,-1,-2,-2
7207769168,6,15,9,26,-9,5,1,-1
7207769168,-6,-11,-16,3,4,13,9,2
7207785534,-7,0,17,30,3,-13,-8,0
7207785534,-15,-24,3,-53,-31,-3,4,-6
7207787166,5,17,-2,-36,-11,-1,-1,3
7207787166,0,-2,3,50,10,9,3,0
7207799223,2,-6,-1,22,39,-4,-1,-3
7207799223,-11,7,10,-8,-29,-17,-7,-2
7207808188,-8,-4,-27,-56,-12,8,-2,-7
7207808188,5,11,21,9,-6,-3,1,2
7207822368,5,-4,-14,-16,15,4,2,-1
7207822368,-1,12,2,8,-6,-1,-7,0
7207829227,-3,-1,-3,-4,-7,0,-1,2
7207829227,-6,-7,3,-13,-6,-3,6,1
7207845507,-2,2,-6,5,6,11,-11,-6
7207845507,11,3,7,-5,-11,0,-21,-1
7207847157,1,2,5,4,-5,-18,5,2
7207847157,-2,-21,-21,-9,7,7,22,5
7207859198,-10,-21,0,-6,-4,-22,-3,5
7207859198,14,0,-2,-11,-8,-1,11,-4
7207868238,-12,-19,-5,2,9,22,4,-3
7207868238,5,1,-1,-6,-5,0,-1,-9
7207882383,-4,-2,-2,-5,-1,-18,-26,1
7207882383,19,7,5,-8,-7,-2,-7,-1
7207889197,-20,-2,-4,7,6,-14,-4,4
7207889197,-16,-5,2,1,0,13,-2,-6
7207905545,2,2,3,-5,-3,-5,-5,-5
7207905545,-3,-16,-3,-2,-1,16,9,7
7207907165,21,-11,-1,1,0,-7,-2,1
7207907165,-1,-12,-2,-14,-10,-3,-17,-3
7207919190,6,11,14,3,9,4,12,6
7207919190,1,18,-7,-1,1,5,12,4
7207928198,11,13,8,16,3,-17,0,3
7207928198,-23,24,14,-13,-4,26,10,6
7207942346,3,-15,-1,17,12,12,8,-1
7207942346,3,22,-29,-23,-9,-10,-3,-3
7207949186,-32,11,-2,4,-10,2,-2,-7
7207949186,8,-48,24,36,4,-8,-10,-4
7207965523,5,-19,-12,0,-8,4,6,6
7207965523,2,76,37,-11,-1,7,5,7
7207967137,14,-49,-59,-14,-1,-8,-15,-8
7207967137,-26,1,45,-7,-11,-6,-2,-1
7207979653,25,58,19,2,-11,-2,-3,2
7207979653,24,46,-42,33,10,11,12,7
7207988227,-62,7,29,-16,5,3,-21,-27
7207988227,25,-3,-4,-14,5,-9,2,5
7208010543,-12,-16,-39,-32,-6,0,12,11
7208010543,11,45,53,4,-20,-12,-7,-3
7208012140,41,38,0,45,-8,-7,-8,7
7208012140,-25,-56,-92,-64,12,1,-3,-7
7208025496,-15,-59,18,0,-10,-6,16,-14
7208025496,-15,-36,-56,9,26,8,-9,3
7208027147,-2,6,9,10,2,5,1,-1
7208027147,2,25,24,10,-7,-15,-9,-3
7208039271,8,5,14,26,2,2,-2,-1
7208039271,-1,20,-10,-50,-20,-20,-4,0
7208048159,9,41,27,7,5,-15,-8,1
7208048159,-10,42,-21,-1,-14,34,-10,-9
7208062421,8,30,17,13,12,20,22,3
7208062421,-15,-61,18,6,15,-11,-22,-5
7208069167,11,-4,3,9,1,-1,26,7
7208069167,12,-8,-10,5,-23,0,-1,-3
7208085546,-17,-23,-7,-2,-11,-16,-12,-8
7208085546,-8,-49,-11,-6,-7,-14,-2,-17
7208087170,4,-46,-16,16,1,22,-18,4
7208087170,6,-5,6,-16,24,0,34,13
7208108019,-4,-9,-10,-19,9,10,-9,-11
7208108019,0,-19,5,21,-2,-7,7,1
7208109977,-1,-7,7,-16,-7,-2,0,-3
7208109977,4,4,-1,7,-7,-23,-9,-1
7208122361,-5,14,-14,-9,-3,3,-12,-2
7208122361,-11,-29,10,-13,4,13,6,-2
7208129196,-10,-9,15,-3,9,-13,-3,-4
7208129196,-9,2,-25,-17,-6,0,-9,-2
7208145496,2,0,-16,-8,-4,-13,7,2
7208145496,-1,15,34,7,-7,2,-2,-1
7208147147,-2,-8,-17,13,-3,5,6,0
7208147147,8,22,-9,-32,-11,-23,-9,-3
7208168025,2,10,1,-13,17,20,0,1
7208168025,-12,-5,1,4,-4,-1,1,-2
7208169634,5,10,11,25,-1,3,4,2
7208169634,-2,4,-26,6,16,-1,-5,-5
7208181681,1,2,11,9,-10,-6,-4,1
7208181681,-3,-1,-18,-29,-13,2,0,1
7208190672,8,-6,-4,19,-7,-4,3,-3
7208190672,-13,3,27,0,8,5,2,-1
7208205496,-8,-8,-5,11,11,3,1,0
7208205496,1,-8,-5,13,-1,2,2,-1
7208207156,2,10,-6,-34,-5,-17,7,0
7208207156,15,8,9,22,0,3,-6,2
7208228024,7,0,3,-6,-5,5,0,-1
7208228024,-12,-5,-5,-7,0,-4,2,-1
7208229690,3,1,-1,-16,-1,1,14,1
7208229690,14,0,3,15,-5,-13,-2,0
7208241671,-3,7,-5,-5,-1,6,-5,-2
7208241671,-28,-15,-1,9,-1,-5,7,-2
7208250719,-3,-12,-6,-20,-6,1,-27,3
7208250719,4,-2,-1,10,-1,-4,23,-1
7208265508,4,2,-2,0,6,-3,0,-2
7208265508,16,-2,7,3,0,3,-15,0
7208267130,-5,-9,-7,-17,-4,-4,-6,-4
7208267130,5,15,4,2,-2,4,-8,4
7208279176,8,-8,0,0,-5,-5,-3,-1
7208279176,-10,-24,-6,1,0,0,3,-3
7208288158,1,-5,-5,-12,1,4,5,1
7208288158,9,10,3,6,-2,5,-4,3
7208310528,-27,5,5,0,-3,-3,2,-5
7208310528,7,15,4,3,-4,-5,-5,0
7208312164,6,0,-6,-6,5,7,1,0
7208312164,-2,10,11,-5,-1,6,2,-1
7208325546,-5,10,-12,5,4,-7,-4,-4
7208325546,0,-14,4,0,-2,3,0,0
7208327182,10,14,-9,2,-2,2,2,1
7208327182,-24,-34,-1,-9,-2,-3,-1,-2
7208339138,3,14,-1,-12,-8,-12,-6,-1
7208339138,12,43,20,-1,-13,-6,-5,-3
7208348173,22,19,-18,-4,17,10,11,2
7208348173,-36,-55,6,2,-4,0,-3,-6
7208361720,-5,-27,-17,8,9,1,-2,-2
7208361720,-7,-16,6,23,-2,-1,1,0
7208370692,4,18,26,4,-16,-9,-10,3
7208370692,12,-3,-28,-6,5,-5,1,-1
7208384823,-6,57,13,-21,-12,1,-7,-2
7208384823,21,-11,-15,-5,15,7,1,1
7208391633,2,21,1,2,-3,3,10,8
7208391633,-15,-7,9,17,11,7,-7,1
7208407998,9,-4,4,7,-9,-11,-10,-3
7208407998,-2,39,-2,-13,-8,-15,-3,-5
7208409597,-21,-35,-7,-7,8,23,0,-7
7208409597,3,34,1,0,-2,3,5,-1
7208421645,-22,-23,-3,3,-12,-1,-2,0
7208421645,9,9,1,9,17,1,-9,3
7208430709,-3,-13,-4,-19,13,-10,-2,-1
7208430709,16,11,-1,-3,-24,7,-1,-4
7208444887,4,12,12,12,35,-6,6,4
7208444887,12,-6,-5,-10,-22,10,11,5
7208451662,-16,-10,-7,-1,-12,-14,-6,-4
7208451662,1,-3,5,9,-3,-4,-6,1
7208468012,3,-10,3,3,-6,-11,-4,-6
7208468012,-12,-19,-11,11,26,23,6,1
7208469639,5,-7,7,0,-16,-23,4,-1
7208469639,11,17,1,8,-19,-13,-14,-2
7208482386,-5,-19,-6,-5,-14,-17,-6,-3
7208482386,-10,-12,-10,-23,-21,7,4,-3
7208489141,-8,-10,-7,-25,8,20,4,-4
7208489141,11,-1,-11,-7,-10,-10,2,2
7208504842,-1,0,-1,-3,27,6,3,-3
7208504842,-1,-3,24,54,-7,-1,-7,1
7208511637,1,18,-18,-40,7,-8,-8,-1
7208511637,-2,-7,-15,-26,-6,3,12,1
7208535539,6,5,32,17,-37,-20,-8,-6
7208535539,3,6,-32,70,60,28,18,6
7208537190,-9,3,-8,21,-4,-11,-4,-2
7208537190,6,4,6,1,15,2,-3,0
7208541652,-3,0,-16,-21,-17,-3,-2,0
7208541652,-3,-3,13,3,-15,-18,-14,-4
7208550696,-15,-13,1,2,-6,3,5,-5
7208550696,4,0,-1,9,13,1,1,-2
7208565335,-1,3,-8,0,6,7,-2,2
7208565335,3,1,5,-31,-7,-2,0,0
7208571654,1,-5,-3,4,4,0,-3,2
7208571654,-24,0,9,3,-5,3,1,-4
7208588014,5,-1,-6,-9,-2,-5,1,-2
7208588014,-2,-7,-5,-31,-9,-14,-5,-4
7208589627,3,1,9,8,-3,8,3,-1
7208589627,4,-1,-5,2,-2,-37,6,-4
7208601619,-8,-16,-11,-2,13,57,4,8
7208601619,-10,-24,-11,-15,-4,-19,-2,-5
7208610726,-17,-7,6,3,-5,8,9,10
7208610726,4,13,17,8,2,-7,13,-24
7208624826,3,-7,-15,-5,7,-3,-14,7
7208624826,10,6,3,-17,-10,-10,-12,-3
7208631651,6,7,10,3,-4,7,4,4
7208631651,0,-6,-7,-1,6,16,5,7
7208648001,0,-2,2,3,2,-9,-26,3
7208648001,-18,-4,-4,-12,-5,5,12,-5
7208649609,13,-3,-3,-1,-6,-9,-4,0
7208649609,6,-13,-3,1,2,-15,-11,3
7208661669,1,-5,3,0,3,30,11,-5
7208661669,18,-4,0,-9,-5,-4,-8,-1
7208670654,-15,-13,1,-1,-1,-6,-8,-4
7208670654,-11,-25,-3,-2,1,5,-3,0
7208684922,5,7,6,5,-5,-7,19,-1
7208684922,-22,-5,-12,-10,2,5,-1,-8
7208691648,44,19,-1,-8,-11,0,-1,0
7208691648,-10,-6,2,3,5,13,-4,4
7208708045,-7,29,-4,-9,-2,-12,12,2
7208708045,27,72,34,23,-1,8,3,18
7208709648,-44,-83,-69,-25,-13,-14,-20,-33
7208709648,15,65,30,-12,19,20,6,9
7208721614,-35,-27,-29,-14,-11,-14,-4,-8
7208721614,24,9,3,13,6,0,20,7
7208730709,-19,-77,19,-4,-1,-5,-23,-2
7208730709,-11,61,29,21,-7,-7,13,5
7208744820,12,-35,14,2,-11,-10,-14,-3
7208744820,-34,-43,-49,-63,-26,-16,-20,-22
7208751644,-19,40,-20,-15,9,7,9,-2
7208751644,31,0,4,26,17,18,2,7
7208767973,-29,-36,-23,-17,1,2,1,-5
7208767973,11,-11,18,-6,-14,-8,8,4
7208769609,15,45,2,1,0,-4,-28,-8
7208769609,10,-11,-3,-23,-30,-15,-4,3
7208781663,8,35,15,41,7,6,6,-6
7208781663,22,48,26,19,11,-11,-14,8
7208790662,-1,16,-3,-4,-2,-5,5,6
7208790662,-7,20,-11,5,9,22,-34,1
7208813025,20,41,5,-14,-1,-3,27,9
7208813025,-29,-26,-18,-24,-29,-1,-16,-13
7208814574,11,11,19,36,8,14,11,-6
7208814574,2,-51,-13,1,11,-21,-17,-10
7208828001,-21,-18,-9,-29,14,1,0,-2
7208828001,-8,-23,7,19,-5,-1,8,-1
7208829734,1,-13,-1,-11,13,-24,-16,9
7208829734,-6,-23,-5,-1,34,-30,3,-7
7208841662,6,-11,3,8,-47,23,13,-8
7208841662,-10,-4,0,26,51,38,27,12
7208850623,7,3,16,14,-12,-22,-21,0
7208850623,-18,-34,-16,-19,-5,2,4,-3
7208864836,9,0,0,5,13,-14,8,-1
7208864836,10,4,-1,-13,-17,-5,-17,-4
7208871674,-8,10,7,0,-7,-6,7,-2
7208871674,-29,-34,-7,-8,-16,1,-1,-10
7208887941,8,13,-11,-6,-8,-10,-21,4
7208887941,1,11,-9,-8,-7,-5,-5,-1
7208889574,4,7,18,4,17,18,16,3
7208889574,1,19,1,-4,-20,-1,10,1
7208901606,6,11,8,41,10,0,-7,-1
7208901606,-17,-8,-19,-45,25,4,3,2
7208910654,-2,0,-15,-9,-9,2,9,-2
7208910654,0,3,-18,-19,-18,1,-5,-1
7208924903,13,4,18,26,7,-17,-6,0
7208924903,22,6,-1,-5,-11,14,-1,-1
7208931637,-18,10,9,-9,-5,11,6,0
7208931637,-12,-11,2,27,16,14,5,-1
7208947983,-3,-9,-7,-23,-5,-5,0,1
7208947983,4,-5,-7,2,1,-10,-4,-7
7208949564,7,6,-4,0,-11,-6,0,1
7208949564,3,5,-9,-7,-9,-20,-6,-3
7208961595,-11,0,0,-2,8,-4,-8,-3
7208961595,-6,-16,3,12,-1,14,-2,1
7208970635,13,1,10,11,4,-3,9,4
7208970635,-7,1,-2,-6,-6,11,-2,-5
7208984820,0,1,-1,-11,-2,-7,0,2
7208984820,5,-1,-1,10,-3,-2,4,0
7208991590,-12,-10,-1,-1,2,3,-36,-2
7208991590,14,-3,-2,1,-1,-8,3,2
7209008002,-4,-4,-11,-11,-5,4,-4,-6
7209008002,-11,-12,1,7,0,-8,-2,1
7209009572,12,6,5,5,2,5,5,1
7209009572,-5,6,-1,2,-3,-1,-5,0
7209021625,2,-5,0,-1,2,1,-7,1
7209021625,0,3,2,2,-3,-9,0,-3
7209030681,0,9,3,-7,-2,0,12,0
7209030681,1,-2,-2,1,-4,-2,-5,0
7209044904,-10,-5,-3,-3,0,2,3,-5
7209044904,-3,1,7,2,-4,-7,0,2
7209051654,4,-2,-7,13,7,2,5,1
7209051654,-2,-5,-1,-4,1,7,1,-2
7209068012,1,1,7,2,1,-2,-1,2
7209068012,-4,-1,-2,-5,-4,-9,-7,-1
7209069573,10,-4,-6,-20,-15,-2,0,-1
7209069573,2,3,-1,7,12,5,1,1
7209081603,-2,-6,-3,9,6,7,4,-1
7209081603,-12,1,2,3,-5,-7,-7,-4
7209090628,-10,2,-3,4,-2,-2,3,-7
7209090628,3,5,6,-9,-11,-5,-8,-7
7209104789,20,26,3,-15,-8,0,1,9
7209104789,-17,-51,-13,15,19,8,4,-3
7209111591,6,29,8,3,-7,-2,-1,2
7209111591,-18,-36,-3,-2,5,1,-1,-2
7209127938,13,42,-7,-26,-6,-3,-7,-4
7209127938,21,16,7,7,-1,0,3,6
7209129581,-5,46,11,3,6,4,23,7
7209129581,-6,-5,-7,4,-4,-1,-21,-15
7209141642,1,6,8,8,0,-2,-5,0
7209141642,-9,-7,-6,-24,-18,-12,-12,-1
7209150724,-1,-7,1,3,9,7,7,-3
7209150724,-5,18,13,22,9,6,13,6
7209164890,3,-7,3,4,0,-7,-4,-6
7209164890,4,22,-4,-5,0,2,11,6
7209171636,-22,-19,-8,-6,-10,3,-22,-4
7209171636,12,19,-11,-26,-19,-8,0,1
7209188004,-37,-19,-4,-7,-10,-3,-1,-9
7209188004,16,14,15,34,7,-13,-3,2
7209189569,11,-6,-10,-5,11,9,4,-1
7209189569,-9,-9,-6,2,9,7,2,4
7209201582,9,0,2,6,-5,-9,0,5
7209201582,-7,3,2,-14,-6,4,-2,-11
7209210598,-15,-31,-6,7,-1,-15,-9,-2
7209210598,11,-4,-10,-15,-16,6,3,1
7209224819,11,-14,13,8,13,4,7,8
7209224819,-3,-11,-19,-11,-1,-10,-9,-4
7209231613,2,-22,-4,-5,7,-3,1,2
7209231613,7,6,10,6,-6,-7,-2,0
7209247960,-19,-25,-10,0,2,-7,-4,-5
7209247960,-1,-4,-9,-16,1,20,2,-1
7209249599,0,-1,-2,-2,-11,-17,-3,-2
7209249599,-1,9,-2,-2,-5,-17,-3,-2
7209261634,12,8,12,19,23,27,15,8
7209261634,-2,7,11,23,14,-2,-1,-1
7209270613,15,7,-20,-15,-25,-6,-7,-6
7209270613,-8,0,8,5,9,2,1,3
7209284763,-7,-14,-7,-13,-2,-11,3,-4
7209284763,-9,-7,-1,2,13,4,-14,-5
7209291658,5,4,21,11,-24,8,12,7
7209291658,3,3,-7,-1,-2,-9,-12,-1
7209306592,-7,-2,-11,1,-5,5,10,-4
7209306592,2,-1,5,9,-10,-9,7,2
7209314135,-10,-6,-19,-18,17,4,-3,-2
7209314135,12,3,-2,-9,-4,-4,-2,0
7209329736,-7,-9,1,-6,-19,-6,-6,-6
7209329736,-1,3,-8,-9,7,-3,9,2
7209330580,4,-2,5,17,20,18,5,0
7209330580,-2,-3,-1,5,5,8,6,1
7209352240,-1,-6,-2,10,-3,-7,-1,-1
7209352240,-14,-7,-1,-14,-19,-6,-11,-6
7209353043,3,-3,0,-3,0,-2,4,0
7209353043,-12,-6,-11,-21,-7,-18,0,-8
7209366604,15,7,1,3,6,11,-10,6
7209366604,0,8,5,-1,-9,-14,2,-2
7209374089,-9,-6,-3,-10,-3,8,-14,-3
7209374089,5,2,4,9,2,10,12,3
7209389785,-1,2,-4,-1,3,-2,-2,-2
7209389785,-15,-9,1,-6,-8,-6,-10,-9
7209390566,-2,2,3,5,-1,-24,-4,-3
7209390566,-6,-14,1,2,-3,12,-5,-1
7209412252,12,6,-2,-6,-2,-7,-3,-2
7209412252,-11,-9,-7,-1,4,10,0,3
7209413060,-2,-22,-3,0,-3,-9,-5,-4
7209413060,-13,-9,6,4,4,1,-3,-4
7209426582,-10,-14,-13,-12,-5,-3,-4,-6
7209426582,15,-2,6,14,0,1,8,0
7209434105,0,7,1,-2,-1,-2,-11,2
7209434105,3,5,-6,-8,-2,-2,10,-3
7209449782,-10,-6,2,-1,3,-2,-33,1
7209449782,7,4,-2,-4,-2,2,-1,-1
7209450587,-12,2,3,3,4,0,-1,-4
7209450587,-6,-5,-1,0,-3,1,3,3
7209472294,2,2,0,-3,-2,-7,4,1
7209472294,4,2,-4,-5,-2,-1,-14,-6
7209473057,-9,-17,-1,2,-4,0,-29,-2
7209473057,29,16,2,-1,-2,-7,-5,5
7209486612,-55,-12,7,5,-2,1,14,-9
7209486612,3,-27,-15,-26,-13,-5,-2,-3
7209494114,4,11,-4,18,10,1,9,-3
7209494114,12,27,5,2,-3,1,0,10
7209509789,31,-47,6,-4,2,1,-3,3
7209509789,18,59,-21,-10,-1,1,5,3
7209510582,-11,17,0,4,-11,-4,6,-6
7209510582,-2,11,4,-2,3,-2,1,6
