timestamp,emg1,emg2,emg3,emg4,emg5,emg6,emg7,emg8
11989088259,1,-4,-4,3,5,-2,-2,-1
11989088259,0,-4,2,0,-7,0,-4,-2
11989089125,2,-4,-2,3,6,4,1,0
11989089125,2,4,2,-3,-5,-1,-2,2
11989089935,-5,-2,-2,0,2,-2,-2,-2
11989089935,-3,-1,-4,-8,-5,-7,-2,2
11989090678,0,-3,-2,-3,-7,-6,-2,-1
11989090678,0,0,-1,0,5,0,0,-2
11989097756,-1,4,-1,8,-6,-2,-1,-2
11989097756,-4,1,12,-7,2,4,1,-3
11989110661,-6,-1,-5,10,5,1,-2,0
11989110661,-1,-3,-5,-2,0,-1,-3,-1
11989116339,4,0,-1,5,0,-1,1,1
11989116339,6,1,-8,-6,-1,2,0,-1
11989132018,0,0,-1,-4,-3,-7,-3,0
11989132018,-4,-7,-5,1,6,11,4,-1
11989139887,0,3,10,1,2,1,-1,1
11989139887,-2,-3,-7,1,-9,-5,-3,-3
11989147018,0,-2,-1,-5,0,1,1,1
11989147018,-2,-1,-2,1,2,-3,0,1
11989161346,-4,-5,0,-4,-12,-4,-4,-4
11989161346,0,2,-3,-6,4,-1,1,1
11989169871,2,5,8,-2,-2,-3,-2,-4
11989169871,-1,-6,-9,2,-3,-1,-1,-4
11989209560,2,3,0,4,7,3,3,0
11989209560,-6,-7,-6,-3,-3,1,0,-2
11989210430,0,-1,-3,1,0,1,-2,1
11989210430,-8,-4,8,2,4,1,-1,-4
11989211199,10,4,-4,-8,-5,-3,-2,0
11989211199,2,1,4,4,-3,-3,-2,0
11989214239,0,-5,-6,-3,1,1,1,0
11989214239,-2,1,-11,-9,-3,0,1,0
11989221084,-7,-4,12,9,0,-1,0,-1
11989221084,1,0,0,-11,-1,-2,-3,-1
11989229272,-3,0,-5,3,-5,-5,-4,-2
11989229272,1,-1,0,3,0,2,-1,-1
11989236103,-1,2,-2,-1,-1,-4,-4,-2
11989236103,-2,1,0,-4,-2,-1,-2,-1
11989251721,-5,-5,-1,1,6,1,2,0
11989251721,1,2,-4,-6,-11,-6,-5,0
11989258528,0,-3,-4,1,6,0,-1,-3
11989258528,1,-1,-7,-2,1,2,1,1
11989266037,-1,-3,6,-1,-4,-7,-4,-4
11989266037,0,-4,-4,7,10,8,5,-1
11989281091,0,0,-1,-6,-4,-4,-2,-2
11989281091,0,4,-3,4,-1,-3,-1,1
11989289217,-5,-4,0,-7,-5,-1,-1,0
11989289217,2,-1,4,-2,-7,-3,-2,-1
11989295992,1,-1,1,1,1,1,1,2
11989295992,1,-1,-6,-8,-3,-1,-1,0
11989311663,2,8,4,-2,9,1,-1,-1
11989311663,0,0,-4,-6,-2,-2,-2,0
11989318596,-10,-7,-4,-3,-2,2,-2,-1
11989318596,1,-4,0,5,2,-1,1,-1
11989325983,-4,1,0,1,-4,-3,-2,-2
11989325983,-1,2,1,-5,-3,-3,-3,-2
11989340996,8,0,-1,2,5,1,2,2
11989340996,-4,-2,2,2,-1,-2,0,-3
11989349197,6,1,3,1,-2,5,1,0
11989349197,0,1,1,6,1,1,-1,0
11989356125,-4,-3,-12,-5,-3,-5,-4,-3
11989356125,-6,1,10,-6,-12,-6,-4,-4
11989371779,-2,0,0,-3,2,3,4,0
11989371779,-3,2,-2,1,4,3,1,-2
11989378610,-2,-4,2,7,-3,0,0,-3
11989378610,0,-2,-3,2,2,-4,-2,-1
11989393486,0,2,-10,-5,-3,-3,-1,0
11989393486,-1,-5,2,1,-6,-2,1,2
11989401036,-4,-2,-6,-12,-3,-1,-3,-2
11989401036,-1,-3,-2,-1,-3,1,0,-3
11989409955,0,-5,-2,-1,-9,-6,-3,0
11989409955,1,-3,-4,-7,6,2,0,0
11989415949,0,4,6,1,-2,-5,-4,-2
11989415949,2,2,8,5,-8,1,1,0
11989432440,-4,-2,-11,-2,8,1,-2,-2
11989432440,-1,-4,-3,-1,-6,-7,-5,-3
11989438492,0,0,-1,-6,-3,1,3,-1
11989438492,2,-1,-2,-5,-1,-3,-5,0
11989453451,-1,-8,0,-1,-7,-3,-4,0
11989453451,-5,-3,1,-2,3,-1,-3,-5
11989460955,-1,-1,4,10,6,2,3,0
11989460955,-1,-2,1,-5,0,1,0,0
11989469980,-2,-4,-7,3,1,0,0,-2
11989469980,-1,-1,0,-1,-4,-5,-4,-3
11989475973,-3,-2,2,-7,-9,-2,-1,2
11989475973,-1,-1,-3,7,3,3,2,0
11989492460,6,7,0,-5,4,2,-1,3
11989492460,1,2,-6,-7,-2,-3,-2,0
11989498562,-4,-3,-9,0,3,-2,0,1
11989498562,2,-1,9,1,1,-2,-2,-1
11989513471,-1,-5,-4,-2,-11,-6,-4,-3
11989513471,1,1,1,9,9,3,1,-1
11989521079,-1,1,2,1,1,0,-1,-3
11989521079,-6,-4,-8,-8,2,0,0,0
11989530035,-4,-1,7,-2,-4,-3,0,-2
11989530035,-12,-3,6,3,-1,-1,1,-3
11989536165,7,-2,-4,-4,-3,-2,-1,-1
11989536165,10,4,-5,0,-3,0,1,3
11989552601,0,-2,6,-2,2,-1,-2,-2
11989552601,-4,-5,-3,-4,-5,-2,-1,0
11989558594,-7,-4,-1,-1,-3,-1,-2,-3
11989558594,0,-1,-2,2,3,1,-1,-1
11989573646,-1,5,-3,2,0,1,0,0
11989573646,-1,1,3,-2,-2,-3,-1,-2
11989581125,-9,-4,-1,-2,-3,0,-2,-3
11989581125,0,1,-9,1,3,-1,-2,-3
11989590049,4,-1,-1,-1,0,1,1,0
11989590049,7,0,0,-4,-1,0,0,4
11989596036,-3,2,-2,-4,-3,-1,-4,0
11989596036,-6,-4,-2,-3,-2,-1,-1,-3
11989612533,-2,-2,-1,-3,-1,0,-2,-1
11989612533,1,2,4,0,-2,-3,-2,-1
11989618533,1,0,15,3,-3,-4,0,2
11989618533,-8,6,-5,-2,-3,-8,-3,-2
11989634997,5,1,2,-2,-6,3,-5,-2
11989634997,-9,-14,-15,0,7,5,8,-5
11989641095,-2,-2,12,7,11,20,10,4
11989641095,3,1,9,3,2,-6,-4,-2
11989650028,6,0,-26,-9,-1,0,-7,-4
11989650028,-10,2,-2,-7,-12,-8,-27,-6
11989656051,-4,-4,0,-7,-4,-1,14,7
11989656051,3,-9,0,2,-1,-3,-2,-3
11989672508,-9,17,22,6,-1,-6,1,0
11989672508,7,-17,-16,1,-2,-5,1,-1
11989678626,-12,-15,-14,0,-1,-7,-9,-11
11989678626,2,23,-6,1,6,7,5,7
11989695023,1,-11,24,-12,-5,-4,0,-7
11989695023,-14,6,9,7,0,3,5,7
11989701040,9,1,3,1,-5,-2,-5,-1
11989701040,-3,-11,-17,-2,0,0,0,0
11989709968,-2,-3,-13,-10,-6,-2,-2,-1
11989709968,5,3,18,-11,-6,2,4,-1
11989715978,4,6,-26,1,11,-2,-2,1
11989715978,-7,-13,24,11,-10,-1,-1,-5
11989732440,-4,11,37,5,10,2,0,0
11989732440,-2,-18,-86,-30,-14,-6,-2,-1
11989738562,5,5,-2,6,4,2,1,-2
11989738562,-1,-11,2,-10,-7,-25,-13,-3
11989755081,-19,-13,-2,5,0,18,7,-4
11989755081,1,5,27,8,0,-2,-23,-7
11989761006,-5,2,-11,-8,-4,-39,13,-14
11989761006,9,1,18,-10,-21,11,-35,32
11989770069,2,5,-9,16,8,4,-19,-24
11989770069,-40,-31,-11,-9,-8,-7,-31,11
11989776063,57,17,4,0,6,29,72,1
11989776063,-8,-10,-1,2,4,-12,-20,3
11989792502,16,21,-7,10,0,-4,12,14
11989792502,-3,17,24,0,7,7,9,-8
11989798540,-13,-11,-9,-6,-10,-19,-31,6
11989798540,-3,3,14,3,-11,-1,13,-15
11989814930,8,-13,-49,5,-14,-1,3,-1
11989814930,-6,2,-17,-13,34,14,19,-3
11989820956,-13,-5,48,6,9,4,-17,3
11989820956,3,5,-7,3,-2,4,12,-8
11989829960,-8,-1,11,-18,-23,-8,-8,0
11989829960,19,4,26,-14,1,-9,9,2
11989835930,-5,-7,-100,-3,0,7,-13,2
11989835930,-1,8,17,0,15,10,6,-7
11989852509,-6,-10,20,8,-1,-15,-4,1
11989852509,10,0,12,2,-21,-4,6,3
11989858597,0,6,29,-6,-10,1,-7,-1
11989858597,-8,-7,-15,-3,5,6,8,-7
11989875021,-5,-7,-20,-8,-2,-1,4,3
11989875021,8,11,11,7,7,7,6,-2
11989881086,1,1,0,7,4,2,-16,-6
11989881086,-4,-6,-15,-6,-2,-10,5,2
11989889978,4,-1,13,-2,12,10,15,5
11989889978,-2,9,-8,15,-7,-12,-8,-4
11989895980,-10,-9,4,-2,-8,1,-7,-6
11989895980,-4,-12,-9,-10,6,3,-12,-3
11989912412,-2,-4,0,-5,1,-1,-3,-2
11989912412,9,3,7,14,-4,0,5,0
11989918474,-2,7,5,-5,-2,-6,-14,-1
11989918474,2,-9,-9,-8,0,-1,13,-5
11989933420,-1,-4,-17,-6,0,-3,-6,3
11989933420,0,2,-3,3,-16,-9,-1,-2
11989940909,-7,-8,12,2,6,3,0,2
11989940909,-1,-3,-2,5,17,9,3,-4
11989949892,-4,-1,9,10,5,0,1,3
11989949892,10,-3,-7,-8,3,-2,3,1
11989963463,-5,2,11,-5,-17,-5,-2,-1
11989963463,-4,-1,-17,-3,-2,2,1,-2
11989972465,2,-1,-2,-8,5,-7,-2,-1
11989972465,2,0,-7,2,-2,4,-3,-2
11989978565,1,-4,9,3,-6,0,-2,0
11989978565,3,3,-10,7,0,-3,2,0
11989993527,-5,2,-3,-12,1,0,-2,-3
11989993527,1,0,20,7,-7,-5,-4,-1
11990001031,-6,-8,-4,-6,-2,-3,-1,1
11990001031,-5,1,2,2,-3,1,3,-1
11990009972,0,-7,-9,3,0,-1,-1,-1
11990009972,6,4,1,-6,1,0,0,-3
11990023601,0,4,4,-1,-2,0,-1,-1
11990023601,-9,-2,1,0,2,-3,0,0
11990032508,6,0,8,-1,-6,-1,-1,2
11990032508,-1,-8,-3,6,11,1,1,-1
11990038533,-3,-3,-13,0,-2,-4,-5,-3
11990038533,-2,1,-1,-4,-4,-1,-1,-2
11990053526,1,3,-8,2,2,-3,-2,-3
11990053526,-2,-4,10,2,-6,1,0,1
11990061063,-7,-6,-12,-17,2,5,3,0
11990061063,6,5,6,6,-1,-3,-5,-2
11990069996,0,-5,-9,-6,-4,-3,-3,-2
11990069996,-2,-2,-9,-4,0,0,1,1
11990083568,5,8,13,-2,-1,-4,-3,-1
11990083568,-6,1,-1,0,-9,-2,0,-1
11990092482,0,2,5,-2,5,3,2,-1
11990092482,-2,-10,-30,-3,-2,-4,-1,-2
11990098646,-4,1,3,2,2,0,-1,-1
11990098646,4,0,-6,-6,-3,-2,-3,0
11990113577,-1,3,9,3,-2,-1,-2,-2
11990113577,-5,1,14,-2,-1,0,1,-4
11990121075,0,-4,-11,-2,-6,0,0,-2
11990121075,6,5,7,3,12,4,0,5
11990130007,-3,-5,1,-1,1,3,2,2
11990130007,-3,-14,-15,1,2,-1,-4,-4
11990143576,-5,-1,3,3,-5,-5,-3,-1
11990143576,4,0,-4,-12,-7,-4,-2,-5
11990152443,-1,0,-9,1,-6,-2,-2,0
11990152443,-1,-1,-3,1,5,3,3,0
11990158467,1,6,2,-2,-1,-2,0,-3
11990158467,-1,-4,5,0,-2,0,0,-1
11990173416,1,0,4,1,-2,-1,-1,-2
11990173416,-4,-1,-1,-5,-1,1,0,0
11990181040,2,-1,-6,-3,-4,-1,0,1
11990181040,0,4,2,0,1,-2,0,0
11990196089,-2,-1,-3,4,2,1,0,-1
11990196089,-1,2,7,3,1,1,0,3
11990203573,-2,-5,20,2,-1,2,-1,-1
11990203573,0,-8,-10,1,-1,-6,-3,-5
11990219289,-3,5,18,15,2,-2,0,1
11990219289,-8,-12,-15,-9,-4,-4,-4,-2
11990219959,-1,2,-11,1,3,0,-2,-1
11990219959,0,1,0,-10,-8,-1,0,-1
11990233556,4,-3,-9,-4,6,2,-1,-2
11990233556,10,13,6,-1,-2,-1,1,4
11990241109,-2,-4,2,0,1,-1,-1,1
11990241109,-5,-5,-7,4,0,0,-2,-2
11990256037,-2,1,-1,-8,-11,-7,-4,-4
11990256037,-2,6,11,12,4,2,4,-1
11990263594,1,-5,-4,-2,7,2,2,1
11990263594,-1,3,5,1,2,2,2,1
11990279227,1,-3,-7,-1,2,0,0,0
11990279227,-3,2,4,2,-3,-4,-3,-4
11990279909,-1,0,-6,-3,1,0,2,-1
11990279909,-1,0,-8,-2,-1,-1,0,-1
11990293590,-2,-1,3,-2,-11,-6,-3,-1
11990293590,1,0,-8,-9,-8,0,-1,1
11990300953,-2,1,12,22,19,3,0,-3
11990300953,3,2,11,-12,-4,2,0,0
11990316087,-4,-4,-7,2,3,0,2,0
11990316087,0,3,-1,-7,-6,-6,-3,-1
11990323658,-7,-5,-9,-11,-11,-4,-4,-3
11990323658,0,-5,2,4,1,-1,-2,-2
11990339164,2,-3,-4,1,-5,1,-2,1
11990339164,4,4,3,6,1,-1,-2,-1
11990340068,0,-8,-14,-7,0,1,-1,1
11990340068,-5,2,0,2,-4,-3,-2,-2
11990353593,-6,0,-2,-4,-1,-1,-1,-2
11990353593,2,-7,-6,1,0,-2,2,0
11990361034,1,5,8,1,-2,-3,1,1
11990361034,-1,1,1,-2,-3,0,1,2
11990376038,0,-3,-8,-3,3,3,0,0
11990376038,-6,2,11,-1,-4,-1,-2,-3
11990383469,1,-4,-13,-6,-1,-3,0,-3
11990383469,3,2,2,1,1,-2,-1,1
11990399225,-3,3,8,-6,-6,-1,-5,-1
11990399225,0,-4,-2,4,12,3,2,0
11990399949,0,0,-1,-3,-1,-1,1,1
11990399949,0,-5,-11,1,-4,0,-1,-1
11990413444,-6,-9,1,3,-5,-3,0,-1
11990413444,1,-1,3,-6,-6,-2,-2,-2
11990420919,0,3,0,-1,-4,0,-1,-2
11990420919,1,3,-2,0,0,-1,0,2
11990436068,-2,0,-5,-11,-1,-1,-1,-4
11990436068,2,1,-7,-1,-2,-2,-1,-1
11990443560,1,2,5,2,-5,-6,-3,0
11990443560,-3,-6,5,2,-3,-3,-3,0
11990459235,-2,-2,-6,-8,3,1,0,0
11990459235,-3,-6,-12,3,-1,-2,-2,-1
11990460006,-2,-1,1,-3,-3,0,-3,0
11990460006,-2,3,13,3,0,-1,0,-2
11990473510,0,-5,-12,4,1,-2,0,1
11990473510,-2,5,5,-7,-5,2,-1,-1
11990481089,-1,-1,-4,6,-2,1,0,-1
11990481089,-3,-5,-6,4,11,0,-1,-2
11990496066,5,5,12,-9,-1,-1,-1,1
11990496066,-2,-2,-5,-5,-6,-3,0,-1
11990503557,-4,-3,-7,7,4,0,-2,-1
11990503557,0,-2,9,-1,2,6,3,-2
11990519119,-4,2,-2,6,-1,-2,-1,-1
11990519119,3,-5,-4,-5,-5,-4,-2,-2
11990519987,2,1,10,-5,-8,-4,-2,2
11990519987,-5,-2,-12,-2,0,-1,-1,-1
11990535031,3,2,-3,2,0,0,-1,2
11990535031,-8,-1,4,0,-1,2,1,-1
11990541006,-1,-4,-8,-3,1,1,-1,-2
11990541006,5,-1,-1,-9,-4,-5,-3,1
11990555996,-1,-4,3,-1,1,-1,-4,-2
11990555996,2,6,4,4,4,2,2,-2
11990563606,-1,0,-5,-2,4,0,0,-2
11990563606,-4,-5,-9,-2,-5,-2,-1,0
11990579209,-1,-4,-4,-5,-5,-3,-3,-1
11990579209,3,-2,-1,10,5,2,-2,3
11990579987,-4,1,11,3,-10,-2,0,-2
11990579987,1,2,-5,-5,9,4,2,-1
11990593464,4,-6,-12,1,5,4,2,1
11990593464,-1,-3,3,-3,4,1,-2,-2
11990601093,-4,-3,-10,-6,-9,-4,0,-3
11990601093,-3,1,1,3,-7,-6,-5,-4
11990616072,-2,-5,-4,1,-3,-5,-3,-2
11990616072,-1,-1,-4,-4,-2,-2,1,4
11990623539,-1,1,5,-1,3,-1,-2,-1
11990623539,2,0,-9,3,-1,-2,0,0
11990639147,3,2,1,-3,-6,-3,-2,-3
11990639147,-3,1,15,-4,5,4,0,0
11990639993,-8,-3,-5,1,-5,-1,-2,-4
11990639993,4,3,0,-1,0,2,0,1
11990653381,0,0,-3,-4,-2,-2,-1,-2
11990653381,0,-4,-6,2,1,-4,-3,-3
11990661083,3,-2,2,-8,-2,-2,0,-1
11990661083,-4,1,0,-4,-3,-3,-2,-2
11990676050,-4,-5,2,6,-2,2,-1,-1
11990676050,-1,-4,-19,0,-1,3,0,-1
11990683536,0,1,19,4,9,1,-2,-2
11990683536,5,5,-5,1,-1,-1,-1,2
11990699204,-4,-5,3,-7,-7,-4,-3,-2
11990699204,-6,-3,0,2,0,1,1,-3
11990700015,-2,-9,-8,-3,0,-2,0,-1
11990700015,-4,-4,1,0,-3,-4,-3,-3
11990713569,-1,9,15,4,1,0,0,-1
11990713569,1,0,-11,-4,1,0,-2,-1
11990720955,1,-1,-3,10,-6,-4,-3,-2
11990720955,-2,-6,-11,-18,-7,3,2,-2
11990736080,-1,-2,-4,0,7,0,0,1
11990736080,2,4,8,-3,-9,-4,-2,-2
11990743534,1,1,1,3,8,1,1,0
11990743534,1,3,2,5,2,1,-2,0
11990759182,-3,-2,-2,0,-4,-2,-2,-2
11990759182,-3,-2,-4,0,-5,-6,-3,1
11990759957,-3,-3,-5,-8,-4,-3,-1,0
11990759957,-1,-1,-1,0,-8,-3,0,-2
11990773480,6,-2,-5,-4,2,2,-1,2
11990773480,-1,-2,3,0,2,-1,1,-1
11990781009,1,2,1,4,2,2,0,-1
11990781009,-5,-8,-10,2,-2,-2,-1,0
11990796023,-3,4,11,2,-2,0,-3,-2
11990796023,-5,-2,-15,-1,1,1,-1,-3
11990803577,0,-2,2,-2,-4,-2,-3,0
11990803577,0,-2,9,2,-6,-5,-3,-2
11990819152,1,0,-3,-4,-4,1,0,0
11990819152,1,-1,5,3,8,1,1,1
11990819966,0,4,-4,-4,-5,2,0,0
11990819966,0,2,-3,0,2,0,-1,-2
11990833607,-2,-1,-4,2,5,-1,0,-1
11990833607,-7,-7,7,-5,-7,-3,-2,-1
11990841065,1,-3,-10,-9,-2,0,-3,0
11990841065,2,-3,3,-3,0,-1,-2,0
11990856037,-3,0,-1,1,2,2,1,-3
11990856037,0,3,-3,-3,-5,0,-1,-2
11990863504,1,2,1,1,-3,-2,0,-2
11990863504,3,5,-1,-2,-1,-2,-1,1
11990878484,-6,-3,-7,0,-2,-2,-2,-1
11990878484,1,-3,-3,3,-2,-2,-1,-1
11990886803,-3,-1,1,-12,-10,-2,0,-2
11990886803,-4,-4,-1,8,12,3,-1,-1
11990893598,-2,-1,0,4,3,-1,2,-2
11990893598,0,1,7,-1,-6,-3,-3,-1
11990901114,5,2,1,-1,-5,-1,-4,3
11990901114,0,-1,-6,-7,5,2,1,3
11990915967,0,3,0,-1,-5,-4,-2,-1
11990915967,-2,-7,-11,-2,4,-1,-1,-1
11990923463,-6,0,-5,1,3,2,0,-1
11990923463,-6,-7,4,-2,0,1,-1,-1
11990938451,2,-2,4,4,-2,-2,-3,0
11990938451,5,5,-3,-4,-4,-2,-1,0
11990946575,-6,-3,-1,-3,-4,-3,-4,-4
11990946575,1,-3,2,-1,-8,-2,-3,-4
11990953445,2,1,-12,-8,2,2,0,1
11990953445,-1,0,2,4,1,3,-1,-1
11990960971,1,-3,0,4,1,-2,0,0
11990960971,-4,2,-1,3,1,-1,0,-1
11990975964,-4,-3,4,1,-6,-4,-2,-2
11990975964,1,2,-3,-2,-3,-2,-3,0
11990983371,1,-8,-4,-3,0,-2,-1,-2
11990983371,-3,-2,-6,-4,-7,-4,-2,-5
11990998409,-2,-3,-4,-3,-1,-1,1,0
11990998409,-3,-1,2,1,4,1,0,-1
11991006622,-4,1,1,0,0,-1,1,-1
11991006622,3,-6,-14,-8,-4,0,-1,2
11991013510,1,0,5,8,3,2,0,0
11991013510,-1,-1,-1,-3,0,1,-1,0
11991021058,0,2,1,5,-2,-3,-3,0
11991021058,-9,-5,-4,-4,-6,-5,-2,-1
11991036022,1,-2,-5,-7,-8,-4,-2,-1
11991036022,7,2,5,3,0,-1,0,2
11991043542,1,-4,-4,-10,2,0,-1,0
11991043542,0,7,-1,-2,0,-1,1,-1
11991058409,-4,-2,-7,-8,-3,-4,-1,-4
11991058409,-5,-6,4,0,-6,-4,-5,-2
11991066595,-1,1,-2,-1,0,0,0,-1
11991066595,-1,-2,0,1,0,1,0,0
11991081560,-1,-3,2,2,5,3,1,0
11991081560,0,3,0,-2,-1,-4,-2,-1
11991082366,1,0,-5,-1,-4,1,-3,0
11991082366,-3,-6,-5,-5,-1,-2,-2,-2
11991095966,2,1,-3,0,-1,0,-1,-1
11991095966,-3,1,-6,-6,2,-1,0,-1
11991103533,-3,-2,10,7,1,-3,-2,-1
11991103533,0,1,2,2,0,-2,-1,-1
11991118376,-2,2,0,-2,-2,-2,-2,0
11991118376,1,0,-7,-9,-5,-3,-2,-2
11991126757,-4,5,-13,-2,-2,0,0,-3
11991126757,2,2,27,10,6,1,0,-3
11991141747,0,-8,-25,-6,8,2,-1,2
11991141747,-2,-3,-3,-2,-5,-1,-1,-3
11991142511,4,-1,-4,-1,3,-3,0,1
11991142511,-3,-1,-3,-1,-6,-5,-2,-2
11991155873,-3,2,10,4,-3,-3,0,-2
11991155873,-3,-2,7,1,-2,-1,0,-2
11991163557,-2,0,1,1,2,2,1,-3
11991163557,-3,-3,-13,-13,-6,0,-2,-3
11991178423,1,-1,-1,0,-5,2,-2,0
11991178423,-2,0,7,6,-2,-2,-2,0
11991186650,-5,-2,3,1,2,-2,0,0
11991186650,5,-2,-3,-1,1,-1,-2,0
11991201638,1,0,2,1,-3,-4,-3,-4
11991201638,2,2,-9,-4,-6,-4,-4,1
11991202435,2,-1,-1,-6,0,-2,-3,0
11991202435,-5,0,0,2,-4,-5,-2,-3
11991216009,-5,1,19,8,0,3,3,0
11991216009,1,-3,-17,0,9,0,2,-1
11991224208,2,0,-1,-3,-2,1,0,0
11991224208,0,-1,-3,0,2,-2,0,2
11991238409,2,1,3,-3,-3,-4,-5,0
11991238409,-4,0,4,-6,-7,-3,-1,0
11991246681,-4,-4,-4,-3,-5,0,-2,-3
11991246681,-1,-4,-3,9,13,6,0,0
11991261579,0,3,3,-4,3,1,2,0
11991261579,-3,-3,-1,5,8,2,0,-3
11991262396,3,1,7,-5,-6,-2,-1,2
11991262396,2,0,-5,-3,-9,-3,-1,-1
11991276054,-1,-4,-9,-3,0,-1,-2,-1
11991276054,0,2,3,0,2,0,-1,0
11991284184,-2,6,8,6,-2,0,-1,-1
11991284184,-6,2,-8,-6,-6,-1,-2,-1
11991298451,3,-1,1,1,4,-1,-1,-3
11991298451,2,-1,-4,0,-1,0,1,1
11991306797,1,0,2,2,5,1,2,0
11991306797,0,0,0,-4,-3,2,1,1
11991321720,-5,-1,-7,-1,-3,-2,0,0
11991321720,-4,-8,2,-3,-5,-1,-2,-2
11991322461,-2,0,0,0,-5,-4,-3,-1
11991322461,-5,-3,2,-1,1,-2,-3,-2
11991336029,-2,-3,-5,-3,-5,-4,-4,-4
11991336029,2,-2,2,1,1,-1,0,-2
11991344270,1,-2,-9,-2,-2,-1,-3,1
11991344270,-2,-2,10,-1,-7,-1,1,0
11991358481,-3,3,7,-1,7,1,0,-3
11991358481,-2,-1,-1,-1,1,-1,0,-1
11991366721,-5,-7,-7,-6,-4,-2,-1,-4
11991366721,3,4,9,4,1,-4,-1,-2
11991381664,-2,-2,-3,-3,-16,-5,-5,-1
11991381664,0,-1,-15,-5,9,1,-1,-2
11991382434,1,1,-2,5,8,-1,0,1
11991382434,-1,2,4,-2,3,2,-1,-1
11991396044,1,4,13,4,-4,3,3,0
11991396044,-3,-1,0,-4,-9,-2,-4,-1
11991404229,-3,-1,-7,-3,-2,-3,-2,-2
11991404229,4,1,-2,1,-2,-4,-2,0
11991418537,-3,-2,-18,-1,3,-1,-3,1
11991418537,-2,3,12,0,-4,3,3,-3
11991426733,4,0,7,0,-1,1,-1,0
11991426733,4,-1,-6,1,8,0,1,0
11991441706,0,0,-5,-7,-6,-6,-4,-2
11991441706,-1,-4,-3,-2,-4,-2,-1,1
11991442367,-2,-5,-2,-2,3,2,1,-2
11991442367,-4,4,10,2,-2,-1,-1,-1
11991456054,-4,-8,-5,-1,-4,-2,0,-1
11991456054,-3,1,0,-10,-4,-4,-4,-1
11991464224,2,-3,-2,5,-2,1,1,4
11991464224,1,3,-9,-5,1,1,0,1
11991478548,-1,-2,-1,3,5,1,1,-1
11991478548,0,0,-2,-2,-8,-4,-5,-1
11991486599,-2,0,1,-1,6,0,-4,-2
11991486599,1,-3,-3,-3,-1,-1,-1,-2
11991501591,1,-3,-2,-6,-3,-3,-2,-4
11991501591,2,1,-2,0,-7,0,-1,-1
11991502380,-3,-3,-11,-1,0,3,3,-2
11991502380,-7,-2,-5,1,6,0,-1,-1
11991516049,4,-5,9,0,-3,-1,-3,1
11991516049,3,5,8,3,3,-3,-1,2
11991524058,-3,0,2,-7,-10,-5,-2,0
11991524058,-5,-8,-10,2,-2,0,-3,-2
11991538399,-1,0,-2,-6,-4,-2,-3,-2
11991538399,2,0,4,2,-1,-1,0,-2
11991546793,1,0,-14,2,7,-3,0,2
11991546793,1,3,0,-5,-7,-3,-4,-1
11991561621,-4,0,-4,-5,3,1,0,0
11991561621,-1,-6,2,6,4,0,1,0
11991562399,-7,-4,-2,-6,-5,-1,-1,-4
11991562399,-1,-3,0,1,-4,-2,-1,-4
11991575976,4,-1,-3,-1,0,0,1,4
11991575976,-3,-3,-2,-1,4,1,0,0
11991584130,-1,-5,11,4,3,4,0,-2
11991584130,-4,-4,0,-2,-5,-4,0,-1
11991598458,-1,-7,-6,-5,-10,-4,-2,-1
11991598458,-1,1,-5,-2,0,0,1,-1
11991606698,1,0,1,13,15,3,1,1
11991606698,-4,-3,-4,-10,-8,-7,-5,0
11991621677,-1,2,0,2,-6,-1,0,-2
11991621677,2,4,3,4,10,3,1,0
11991622386,-1,-4,-10,-5,-14,-3,-1,-3
11991622386,-2,-3,-9,-5,3,0,-2,-1
11991636002,0,3,3,3,5,0,0,-1
11991636002,-4,-3,-1,-4,-10,-3,-3,-3
11991644241,-4,-4,7,0,-4,-2,-3,-5
11991644241,2,-2,-1,-1,1,2,3,0
11991658575,4,5,10,3,1,1,0,0
11991658575,-4,-10,-34,-6,-3,-1,-1,-2
11991666787,-1,2,-1,-6,-5,-4,-5,1
11991666787,0,-2,-2,1,-4,-2,-1,-1
11991681559,-3,-1,3,-4,4,1,1,-2
11991681559,0,1,0,-6,-2,-1,-2,1
11991682464,3,4,5,6,-6,-6,-3,-1
11991682464,-1,-1,-8,1,0,2,2,-2
11991696038,3,0,6,2,-1,-4,-2,-2
11991696038,1,-3,-8,-5,-2,-2,-2,-1
11991704084,-1,-1,-2,-3,-1,3,0,-2
11991704084,-1,1,6,0,5,1,0,-1
11991718461,-8,-4,-3,2,5,-2,-1,-1
11991718461,-2,-5,1,-3,-6,-5,0,-2
11991726729,1,0,-4,-5,-4,-2,-1,1
11991726729,2,8,0,-3,-3,0,-3,1
11991741617,-1,-3,3,-1,1,-2,0,-3
11991741617,-3,-5,-8,0,-2,-1,-5,-3
11991742292,0,0,5,-2,-3,0,1,1
11991742292,-4,-6,-5,5,6,2,0,-2
11991755962,1,0,0,0,0,2,-2,2
11991755962,1,1,10,6,-1,-2,-2,-2
11991764156,0,4,2,-6,-7,-5,-3,-2
11991764156,1,-1,-7,-6,-10,-1,-2,-1
11991778433,-3,0,-7,1,9,3,2,0
11991778433,-1,0,-11,-6,1,-2,-1,-1
11991786690,3,-3,1,-2,1,-3,-3,0
11991786690,2,0,8,0,-2,-2,1,2
11991801033,-3,-1,-2,-1,-7,0,-1,-2
11991801033,-2,5,6,0,-1,2,3,2
11991809189,-2,-3,-4,-7,-4,-2,0,-2
11991809189,-1,-3,7,8,6,0,2,-1
11991815901,-3,-1,-1,-1,-8,-7,-4,-2
11991815901,-4,-4,-2,1,3,0,-1,0
11991824198,-2,1,0,2,8,2,-3,-1
11991824198,-1,-5,-1,-3,-9,-2,-1,-2
11991838594,-2,2,-3,-1,-1,0,0,-1
11991838594,0,-2,1,5,4,1,-1,0
11991846614,-2,-2,-10,-15,-7,-3,-2,-1
11991846614,2,5,-2,5,6,2,-2,0
11991861066,-2,1,9,6,2,0,-1,-2
11991861066,0,2,5,5,-4,-3,1,-1
11991869225,-1,-3,-7,-4,-3,-1,-1,1
11991869225,-1,1,4,-7,-5,-5,-4,-2
11991875946,-2,-7,-19,-4,-3,1,0,0
11991875946,2,4,13,10,2,2,2,1
11991891711,-2,-2,1,1,1,1,0,1
11991891711,0,3,3,1,0,-2,-2,-1
11991898560,-1,-8,-9,-10,-4,1,0,-1
11991898560,-2,-2,-3,-3,-1,-3,-1,-2
11991906694,-3,2,-4,-2,-1,-2,0,-1
11991906694,-2,2,16,4,-5,-3,-2,0
11991921026,3,-1,-13,1,6,1,-1,1
11991921026,1,3,0,-2,-4,-1,-2,-1
11991929664,-4,-3,8,5,6,2,-1,-4
11991929664,-5,-9,3,1,-1,2,0,-2
11991935914,0,1,7,0,-6,-2,-3,-2
11991935914,-1,-3,0,-3,0,0,-2,0
11991944053,0,5,0,3,4,-2,-1,1
11991944053,0,-5,-19,-7,-2,-1,1,-1
11991958487,-4,-3,-4,-3,-5,-4,-1,-1
11991958487,-3,-5,-8,-4,-3,-2,2,0
11991966590,-2,0,4,-2,-1,0,2,0
11991966590,0,3,0,0,-2,-1,-1,-1
11991980908,2,-3,-1,-1,-2,-3,-1,-2
11991980908,-1,0,4,-1,2,-2,-2,-2
11991990018,-5,-1,-3,2,-5,0,0,-1
11991990018,2,-1,-3,-2,-1,0,-1,1
11992004872,3,2,3,-1,5,-1,-1,0
11992004872,-1,-4,0,-5,-2,0,-1,0
11992006571,-1,-5,-6,1,2,-1,1,-2
11992006571,-6,-4,-3,-1,-4,-3,-3,-3
