timestamp,emg1,emg2,emg3,emg4,emg5,emg6,emg7,emg8
6606893874,-4,9,4,9,11,2,1,-2
6606893874,7,14,4,-10,1,6,2,3
6606894558,2,-20,-1,1,-4,-3,-2,-3
6606894558,-1,-3,-23,-10,-5,-7,-5,-3
6606895466,0,15,2,3,-3,-2,-1,0
6606895466,-1,-12,1,4,3,-1,-1,0
6606896175,-1,-1,5,2,-2,0,-4,0
6606896175,-5,12,4,-1,4,5,5,1
6606906883,0,-8,-7,-1,-1,-5,-4,-2
6606906883,-2,-12,1,-3,-5,-7,-2,-3
6606916313,-2,7,1,6,0,2,-2,1
6606916313,9,5,3,-2,-4,-5,-2,0
6606921920,-5,-15,-1,-6,-3,1,-2,0
6606921920,-4,0,1,3,-1,-1,-5,0
6606937578,3,9,-6,-3,-1,-3,0,-3
6606937578,-14,-5,4,-1,-3,1,-2,-5
6606945626,6,-2,-3,-4,-3,0,0,0
6606945626,-1,6,-6,-1,-1,-1,-1,-3
6606951979,-3,-4,-3,-2,1,0,-1,-1
6606951979,-3,-8,7,3,4,3,-1,1
6606966823,1,4,-26,5,-2,-1,-2,-3
6606966823,-3,4,6,-7,-3,-4,-2,-1
6606975370,20,7,8,-8,-2,-1,-1,1
6606975370,-4,4,9,6,4,-1,1,-1
6607014999,-20,2,-10,-12,-5,-4,-7,-4
6607014999,6,-12,-3,-1,0,-2,-1,-2
6607015939,-5,-8,-5,2,1,0,0,2
6607015939,-25,10,-3,-3,-3,-2,-1,-8
6607016678,21,-3,1,1,0,-3,-2,3
6607016678,7,-9,-1,0,-4,-4,-8,5
6607019834,0,16,2,-3,-1,2,6,-4
6607019834,17,8,3,2,0,2,4,6
6607026772,-17,-19,-3,1,-1,0,-2,-4
6607026772,-1,6,2,2,2,3,-1,-1
6607034880,8,-3,-6,-5,-5,-7,-4,-11
6607034880,-5,-5,-3,-4,-2,-3,-9,9
6607041623,-2,67,13,4,3,2,5,-3
6607041623,3,0,-2,-5,-3,-2,1,5
6607057425,21,-51,7,0,-1,0,-4,-4
6607057425,-63,-58,-17,6,9,1,-5,-10
6607064169,33,-17,0,0,0,0,16,13
6607064169,-3,75,20,2,-3,-1,7,-1
6607071775,5,-77,-5,1,3,2,-8,-1
6607071775,-17,47,-4,-16,-17,-12,-11,-10
6607086659,40,-50,-12,10,6,1,17,7
6607086659,-16,38,30,6,-1,11,-6,3
6607094915,-15,39,-9,-15,4,3,-8,-22
6607094915,-3,-10,-1,55,26,10,7,6
6607101691,-31,-62,-20,-3,-21,-21,-19,-12
6607101691,50,26,-1,-13,9,0,14,13
6607117344,-21,-7,-12,-7,-25,-17,-12,4
6607117344,10,40,8,-3,6,6,6,3
6607124110,-5,38,0,1,12,12,1,-12
6607124110,13,-36,9,20,-7,-11,-29,-5
6607131696,-26,6,3,-8,-2,-6,-4,-2
6607131696,8,-24,-12,-2,-3,1,5,8
6607146592,4,-13,-17,-31,-8,-10,-12,1
6607146592,-9,-41,-34,-20,-12,-2,-5,-6
6607154945,11,14,18,23,8,5,15,12
6607154945,26,4,4,-42,-6,-1,-12,-2
6607161689,-26,31,0,7,6,3,-2,-3
6607161689,-25,-23,-5,5,1,-2,-7,-10
6607177420,5,27,13,1,-8,-16,-14,2
6607177420,11,14,17,35,-11,-3,9,-3
6607184094,-3,-18,-20,44,5,24,-5,-1
6607184094,3,-5,13,4,16,-13,1,-2
6607191646,-12,-28,-23,-20,0,4,20,3
6607191646,12,-7,-13,3,-5,-15,-4,0
6607206669,-7,-21,7,42,-5,3,-4,-7
6607206669,-7,-14,-26,-1,-22,-1,8,-3
6607214836,-8,2,14,8,5,-2,0,4
6607214836,-2,-24,-8,16,9,17,-5,-10
6607221664,8,31,9,2,19,-9,7,5
6607221664,-12,4,10,42,3,-2,-1,-5
6607237408,3,1,-39,-43,-23,-8,-9,-5
6607237408,10,11,-5,-41,-20,-4,7,3
6607244137,-3,13,16,36,15,-3,2,2
6607244137,4,35,11,-4,5,12,4,0
6607251687,6,14,8,16,6,-3,1,4
6607251687,1,0,-2,8,0,-10,-13,-7
6607266636,-11,13,-4,-31,-2,6,7,3
6607266636,-2,-2,-2,-10,-1,-9,-1,-1
6607274790,-1,5,1,11,4,7,5,-7
6607274790,-3,-13,-14,-20,-6,-6,5,0
6607281652,-10,-14,19,-29,-25,-6,3,-8
6607281652,3,-18,-18,-16,11,0,4,4
6607297318,-12,-6,8,-7,3,14,5,-4
6607297318,0,13,17,-7,5,7,7,-1
6607304252,10,14,-14,-20,-2,-10,-11,2
6607304252,-4,-15,-9,-6,-3,0,0,-2
6607319909,-3,13,-4,-2,-3,-8,-11,-6
6607319909,1,-6,-1,1,-3,-8,-6,-2
6607326665,1,-2,6,-8,-7,-1,-1,1
6607326665,-13,-15,-8,-18,-8,-4,-7,-10
6607334769,11,3,6,13,6,3,2,4
6607334769,-3,-16,-3,-5,0,-6,-38,4
6607341710,-7,-9,-4,-14,-6,-3,4,-9
6607341710,-6,-5,10,-2,-2,5,18,2
6607357409,2,-3,-3,1,6,8,19,3
6607357409,8,-11,0,-1,-1,2,8,1
6607364224,-9,2,4,-6,-1,-4,-16,-3
6607364224,7,-8,-2,-3,-3,-8,24,8
6607379777,-13,0,-35,5,3,10,0,-2
6607379777,12,6,13,-4,-2,-6,-3,-1
6607386671,-11,21,15,1,3,-5,5,-8
6607386671,-7,0,39,-7,-4,8,-5,2
6607394901,11,16,-18,-1,0,1,-2,3
6607394901,-1,23,-76,-4,-3,1,12,-1
6607401588,-4,-37,-40,-13,4,2,-8,2
6607401588,6,35,14,19,5,-6,-19,-7
6607417304,0,-19,8,-3,2,3,3,7
6607417304,7,27,34,-2,-1,1,9,10
6607424078,-10,-50,-29,-13,-12,-10,-9,-5
6607424078,30,57,8,6,-4,9,-7,2
6607439819,5,-22,-31,-12,7,-4,1,0
6607439819,-47,-26,27,8,8,6,11,-11
6607446677,-3,40,37,-15,6,5,-1,-3
6607446677,9,3,8,9,-7,-3,-1,6
6607454122,6,-19,-3,-10,-13,-10,-9,-9
6607454122,49,90,55,16,10,4,10,14
6607463045,-36,-74,-27,25,-35,-16,7,-10
6607463045,8,32,-85,-19,37,12,-16,0
6607477424,-18,-44,5,2,-7,-9,-12,-4
6607477424,-30,-34,7,25,1,-9,-3,-7
6607484187,21,11,1,3,0,14,-16,7
6607484187,1,23,12,-1,3,4,41,5
6607500616,32,37,32,22,0,3,18,8
6607500616,-22,9,-2,-11,-4,-13,-11,-5
6607506637,36,34,49,0,-1,4,-9,10
6607506637,-39,3,-6,2,-15,-11,-29,-15
6607522357,-10,13,2,12,20,6,-2,-3
6607522357,13,1,-10,-2,-1,5,12,-3
6607523039,7,107,2,4,2,-4,-3,2
6607523039,-14,-30,-21,-20,-19,-14,-3,-3
6607538064,-3,20,28,-6,9,-13,-19,-4
6607538064,0,-28,-5,22,-61,20,32,1
6607544161,-1,-49,-6,-19,31,-17,8,-2
6607544161,-4,-93,8,-9,-3,6,12,4
6607560518,-2,-26,-1,45,2,1,-8,-5
6607560518,3,-45,-26,-24,5,-4,-14,4
6607566679,14,-9,14,15,39,9,-3,1
6607566679,-11,-34,-16,-12,6,-10,-3,-12
6607582337,-14,9,-1,1,-38,16,8,-5
6607582337,6,-10,-4,-34,-1,-10,-9,-1
6607583015,-7,1,-16,5,-3,-4,13,3
6607583015,-1,-6,31,27,11,-3,-11,-3
6607598018,7,16,-29,-50,-6,-5,1,6
6607598018,-6,-16,-17,8,5,-9,-20,-10
6607604159,-3,-13,14,-13,-16,-1,0,-2
6607604159,-1,1,-23,-31,-8,-2,-4,-2
6607620573,0,8,-1,-10,-11,-6,-13,-5
6607620573,-3,0,6,26,8,-2,9,0
6607626655,6,21,-15,14,-17,-12,-6,-4
6607626655,5,-5,-2,4,-7,8,2,2
6607641660,-16,3,4,-27,11,-4,4,2
6607641660,4,-21,-22,-16,16,1,-7,3
6607649160,-6,-6,1,46,0,15,7,1
6607649160,-6,-15,9,-34,-12,-5,-8,-2
6607658067,-3,-3,4,-17,-1,-4,-2,-5
6607658067,-5,-8,-21,-6,-4,-2,-3,-2
6607664104,-7,-14,0,-1,1,15,10,2
6607664104,-6,7,-11,2,-7,-8,-1,-5
6607680533,8,6,20,30,6,-2,-5,2
6607680533,-9,-9,-3,-22,-5,-7,-16,-9
6607686649,3,4,0,-19,0,4,19,3
6607686649,-4,2,0,-2,0,0,14,1
6607695584,-1,-3,10,-1,4,0,1,-3
6607695584,-3,-1,-2,-2,1,-1,-11,-2
6607709155,-3,3,4,-7,-3,0,-5,-3
6607709155,-5,0,-10,0,7,6,-5,0
6607718062,7,16,-6,6,-1,-1,5,0
6607718062,-1,5,6,1,2,-6,3,-4
6607724159,-2,-28,-1,-19,-17,-14,-15,-5
6607724159,-1,-13,8,17,-1,2,4,1
6607740562,-4,-13,1,-14,-3,-1,2,1
6607740562,-6,-17,3,24,5,-1,-5,-5
6607746667,0,-11,-28,-22,-5,-5,-20,0
6607746667,-2,6,9,4,-5,-7,-7,-3
6607761651,-2,-2,-1,-6,-4,-1,0,-2
6607761651,-2,-4,7,8,0,2,4,1
6607769166,7,8,25,14,1,7,7,1
6607769166,5,-4,-30,-15,7,1,-2,3
6607778071,-3,-12,-16,-20,-2,-8,-9,-3
6607778071,-2,15,12,15,2,0,5,-5
6607784162,-5,7,-8,-2,-2,4,18,0
6607784162,2,3,14,11,-1,0,-4,0
6607800515,-5,-8,5,17,0,5,4,0
6607800515,2,16,-8,-16,-2,0,2,1
6607806644,15,4,3,-2,4,0,-2,1
6607806644,-8,-4,0,5,-6,-3,-3,-3
6607815555,-12,16,0,8,-8,-8,-8,-7
6607815555,2,8,4,-9,-6,-3,-6,-6
6607829155,3,-3,5,-1,1,3,4,10
6607829155,6,29,-11,6,8,1,-15,0
6607838040,4,16,-6,2,-3,-4,2,2
6607838040,10,-7,21,-2,1,-4,-4,-7
6607844083,-45,-7,-23,-13,-2,5,-17,-1
6607844083,4,0,-1,1,-4,-1,2,-3
6607860559,-12,-20,3,2,0,-1,-3,2
6607860559,12,-11,1,-8,2,0,4,-1
6607866579,12,29,2,0,-4,-5,3,-3
6607866579,-20,-14,8,-1,-3,-10,-2,-7
6607875549,4,-23,-27,4,3,18,4,0
6607875549,6,30,2,-12,-2,-2,-1,1
6607889053,2,23,17,0,0,0,-9,-4
6607889053,2,-11,-5,9,-2,-1,-9,7
6607898035,23,36,19,-3,-3,-7,-11,-1
6607898035,-30,15,-15,1,-2,3,4,0
6607904119,-4,-48,-14,18,3,-4,-2,-9
6607904119,15,5,1,-19,0,1,-4,4
6607920630,-1,60,-16,29,0,0,7,0
6607920630,-5,15,-50,-20,5,11,-1,5
6607926537,-41,-16,-29,-29,-10,-10,-9,-19
6607926537,27,9,11,7,3,3,3,0
6607935539,57,79,92,44,1,2,4,15
6607935539,-27,-34,11,22,18,-3,-3,-6
6607949185,13,103,-1,-58,19,-1,3,6
6607949185,-48,-72,-28,-35,-12,1,2,-16
6607958039,7,39,-44,7,-11,-5,3,6
6607958039,1,-80,73,33,-3,0,1,6
6607964123,13,31,-3,52,27,-3,-2,-9
6607964123,16,38,16,12,-11,-8,-16,4
6607980467,3,-57,47,-7,26,12,10,9
6607980467,-48,83,-84,-35,-22,-11,-7,-21
6607986491,29,-42,-11,9,-17,-7,-43,5
6607986491,27,45,54,32,0,5,46,12
6608001526,-12,-64,-83,-33,10,-5,-3,-10
6608001526,5,-73,-1,0,-1,3,-6,13
6608009064,-21,20,36,-4,-4,7,31,-7
6608009064,-8,11,9,32,-13,8,-22,1
6608024720,-8,-38,-24,-16,-4,-36,-48,-11
6608024720,17,32,25,5,13,9,36,-17
6608025565,20,31,-2,-24,-39,12,79,25
6608025565,-4,-30,-19,-4,27,-1,-2,9
6608040587,-17,-15,5,12,8,11,14,-6
6608040587,-5,13,-5,-12,15,-4,-22,-5
6608046497,-10,-30,5,1,-31,-11,3,3
6608046497,5,-32,-11,9,-10,-28,-15,-11
6608061570,3,-4,-14,-25,4,8,11,0
6608061570,3,-12,8,12,-26,-7,-35,-4
6608069156,3,-46,17,34,16,-5,-11,-4
6608069156,-27,-24,-8,-67,4,16,12,4
6608084829,-7,-7,-21,-91,-18,-6,3,-8
6608084829,6,-12,10,17,28,7,-5,8
6608085525,5,-9,11,42,-2,2,-10,0
6608085525,-9,20,-24,-48,22,-22,0,-15
6608100544,-10,-5,26,25,-28,13,2,-1
6608100544,19,12,3,-22,-14,-5,15,12
6608106652,-3,-10,-29,-53,55,3,-13,-4
6608106652,5,6,36,42,-11,2,-12,5
6608121658,-15,11,36,38,2,2,-14,-12
6608121658,-6,-1,-10,-20,5,0,13,6
6608129160,-12,-9,0,-5,-20,6,-3,-4
6608129160,5,20,0,-12,-13,-5,-16,-6
6608144793,-4,22,-10,-6,12,2,22,6
6608144793,18,39,16,-11,-20,-7,-5,2
6608145572,-14,7,23,12,2,0,2,-4
6608145572,5,-3,-19,-11,-13,3,5,-3
6608167153,-8,-8,6,40,23,3,-3,0
6608167153,8,0,-27,-19,-10,-7,-6,0
6608167943,11,-25,22,34,-5,-4,-5,0
6608167943,-3,-3,-20,-7,-5,5,2,-3
6608181593,6,1,14,3,-11,-11,-4,-1
6608181593,-2,-22,4,10,17,12,6,5
6608189071,1,-5,-10,7,11,4,-17,-2
6608189071,-4,-8,-1,12,1,7,11,-6
6608204775,-10,-14,2,-7,-9,-9,-7,-4
6608204775,-6,-6,6,4,-10,-10,-15,-4
6608205468,8,12,-6,-17,-7,5,0,8
6608205468,13,3,-17,14,10,1,12,5
6608220511,1,-7,-6,-9,-11,-11,-7,6
6608220511,-7,-12,-2,9,-6,12,1,-11
6608226665,-14,3,-9,-11,-7,-9,-11,-9
6608226665,12,14,22,10,7,9,-7,5
6608241653,-13,-9,-14,-4,-3,-8,6,-8
6608241653,10,0,-3,-4,-6,-15,6,1
6608249111,1,-4,-6,-10,-3,4,22,0
6608249111,-29,3,-4,6,5,9,7,-9
6608264777,-2,-14,8,-3,-13,-3,-3,-4
6608264777,3,2,0,6,2,0,-8,1
6608265498,4,-12,-6,-4,-5,-15,-5,-4
6608265498,3,-3,5,5,-1,-8,-8,-8
6608280523,-1,8,-14,1,2,15,-17,8
6608280523,1,-13,-12,-1,2,9,14,5
6608286519,14,18,-11,-20,-3,-13,-14,0
6608286519,-11,12,-8,8,0,-1,5,-1
6608301518,-4,17,-13,3,-2,6,-19,-4
6608301518,-9,-5,47,13,-4,-7,11,-5
6608309129,-15,-21,-19,-1,-2,5,-14,-3
6608309129,21,37,-18,-9,-4,-12,-3,2
6608324809,16,2,30,35,3,8,8,5
6608324809,-13,33,-1,-49,-8,-7,-2,-9
6608325474,6,13,41,37,17,9,13,10
6608325474,-3,21,7,-6,-1,3,-1,-3
6608340503,21,-15,15,8,1,-7,7,5
6608340503,31,50,17,11,3,4,-8,4
6608346566,-29,-62,-9,0,-10,-5,-4,-6
6608346566,-7,43,27,5,-9,-7,-16,-8
6608361621,-41,-47,-66,-39,-1,-4,27,-12
6608361621,23,-3,13,7,1,6,2,9
6608369131,-3,-40,-2,-2,-2,-3,1,-3
6608369131,-2,1,-18,4,1,2,-1,5
6608384765,16,21,12,1,-2,-2,0,-1
6608384765,-13,-74,-9,29,6,1,-4,-2
6608385528,11,92,-14,-48,-6,0,8,2
6608385528,-19,-84,-17,21,1,-1,4,-7
6608400520,-15,28,35,30,4,4,17,-1
6608400520,8,-12,-30,-52,4,-1,-5,0
6608406665,9,54,12,24,-18,-4,-4,2
6608406665,-36,-25,4,19,-9,-5,4,-7
6608421653,4,-4,-46,-61,16,4,-6,6
6608421653,22,120,15,22,-2,0,-2,8
6608429140,-43,-75,-35,-12,5,-2,3,-18
6608429140,13,39,6,-30,-10,-2,-29,6
6608444793,-2,-6,26,35,-15,-14,-2,-2
6608444793,7,-35,-6,9,-3,0,7,-3
6608445562,-7,-18,-6,16,18,-6,-7,-2
6608445562,1,-32,1,-18,-43,5,-22,-2
6608460521,-4,-56,-5,14,33,21,5,3
6608460521,-4,-4,-20,29,25,14,35,4
6608466650,1,-30,20,-3,1,-6,-9,-2
6608466650,9,-24,-9,-27,1,-16,-9,2
6608481574,4,23,4,-8,-76,-17,-12,-10
6608481574,-24,-20,-15,-15,-6,10,-9,-2
6608489179,-3,-23,-4,-24,-6,12,6,-5
6608489179,6,15,25,49,15,-19,12,-6
6608504799,-15,-27,-8,-38,-19,9,-20,1
6608504799,-4,-8,1,64,17,-16,-9,-2
6608505467,6,16,-14,-87,4,-6,-9,2
6608505467,-9,-11,-8,-6,-31,11,13,-3
6608520490,13,30,13,-7,37,-3,3,3
6608520490,-11,-23,5,-25,-9,0,-6,-3
6608526649,16,30,-12,38,10,6,1,5
6608526649,-5,2,22,14,27,13,4,-3
6608541482,-7,-2,-10,5,5,-4,4,-3
6608541482,3,11,9,-39,-3,-4,-14,1
6608549135,1,10,5,53,-20,-5,-1,-1
6608549135,-8,-24,-19,-60,15,-4,-2,-3
6608564068,-8,-10,-17,1,-13,-3,-15,-2
6608564068,4,-6,-17,-5,-3,-3,4,1
6608571615,-10,-8,6,-2,-9,0,-11,-6
6608571615,3,2,4,17,-4,-2,7,4
6608580521,-1,6,22,14,15,1,-4,0
6608580521,-6,4,-15,-10,-7,-2,-7,-3
6608586674,-3,-8,24,9,2,-4,1,-3
6608586674,13,-3,-16,-6,1,5,-8,10
6608601647,8,16,2,-19,3,-8,-15,-2
6608601647,-8,-15,-2,-5,-5,-2,5,-1
6608609146,7,-1,1,7,-4,11,2,-2
6608609146,-1,4,1,-3,8,5,8,4
6608624190,6,-7,2,8,6,-5,-1,-2
6608624190,-7,1,-4,4,-16,-5,-8,-10
6608631688,-1,-1,-7,-8,-2,-5,5,6
6608631688,3,-5,-9,-7,0,1,-59,-4
6608640484,-25,-4,-6,-8,-7,-6,13,-12
6608640484,11,-5,0,-3,-5,-11,8,3
6608646601,8,8,-9,-15,-4,5,-15,3
6608646601,-5,-2,0,9,12,6,16,-1
6608661622,-5,-1,-2,3,-12,-17,14,-5
6608661622,-6,-3,2,-3,-4,6,-8,0
6608669112,28,20,2,3,1,-2,0,-6
6608669112,-11,0,2,6,1,-6,8,3
6608684142,-21,-9,1,4,2,3,-21,-6
6608684142,9,-1,-2,0,-3,-15,7,-1
6608691548,13,7,-12,-18,-2,11,-1,9
6608691548,11,13,0,5,-4,-2,10,-3
6608700501,11,4,-1,-13,-1,-2,0,3
6608700501,-23,15,2,8,7,2,-8,-4
6608706616,3,5,-2,11,-7,-6,10,1
6608706616,-5,8,21,16,-6,-4,4,-5
6608721630,4,20,-13,-8,21,13,6,5
6608721630,-14,-52,7,-9,-6,-4,-9,-8
6608729100,0,27,-33,-11,1,-4,1,1
6608729100,-4,-11,1,15,1,2,30,1
6608744161,13,19,8,1,-3,1,4,5
6608744161,8,26,14,-1,-4,2,-1,0
6608751663,-7,-81,-20,-8,2,-7,-6,-5
6608751663,-1,35,11,-2,2,-1,1,-3
6608767238,7,24,-10,6,-7,-2,-2,4
6608767238,-7,-60,-6,-2,0,0,-5,0
6608767945,-9,18,33,37,-3,0,1,3
6608767945,-14,-33,-19,-29,-7,-7,-8,-9
6608781593,2,-13,-10,-13,3,2,2,-3
6608781593,-9,22,-7,24,-2,2,-4,-2
6608789029,-2,21,39,10,-3,-2,1,1
6608789029,13,88,-8,-11,6,-1,-1,0
6608804125,-19,-72,-22,-23,-15,-5,-8,-8
6608804125,18,24,-16,-15,-6,-6,-5,0
6608811595,-11,42,35,-2,-11,-2,4,-5
6608811595,2,55,-8,-1,11,2,8,2
6608827301,25,-20,8,7,-3,1,1,11
6608827301,-8,-9,-22,-22,1,3,1,-6
6608827993,3,-26,-13,-12,4,-17,-11,-2
6608827993,-17,-64,6,5,-43,-9,-5,-7
6608841645,0,-10,16,66,26,17,9,1
6608841645,11,-22,-10,-23,3,-1,3,-2
6608849141,-31,10,1,-9,6,-7,-6,-3
6608849141,14,-47,-6,-22,-13,-18,-7,3
6608864159,-1,-18,-8,21,-7,17,1,-1
6608864159,-8,21,12,19,35,2,4,-1
6608871639,10,-15,-9,-7,-45,-5,-2,0
6608871639,7,11,5,1,3,5,8,4
6608887055,-6,-2,3,2,22,-2,-1,-1
6608887055,14,8,13,19,25,-1,-13,2
6608894814,3,10,-1,-16,18,17,33,2
6608894814,4,-25,-6,34,-16,-8,0,-3
6608901518,3,64,16,-17,-42,-23,-13,3
6608901518,4,-9,-14,-28,40,18,7,-1
6608909104,-4,-12,-10,18,14,10,-5,-1
6608909104,12,5,-12,17,3,2,9,10
6608923949,-4,1,19,-25,7,6,7,-3
6608923949,-7,19,5,27,-17,-21,-4,-4
6608931482,-1,-23,-22,-19,-13,-3,-10,-5
6608931482,11,7,8,-17,7,7,0,-1
6608947247,-3,15,8,14,12,-3,-2,2
6608947247,1,4,21,52,-15,-1,4,3
6608948098,-2,4,-6,-21,-1,-1,-7,-2
6608948098,-5,-15,-6,-2,21,12,2,0
6608961483,-3,1,-14,-19,-16,-20,-12,-7
6608961483,-21,-17,-1,-19,-32,6,-10,-6
6608969069,7,-2,-22,-7,9,-2,12,-1
6608969069,-8,11,7,-8,0,-11,-9,-5
6608984128,-13,-12,14,24,2,6,2,-5
6608984128,0,4,-16,-21,-16,-8,-3,0
6608992267,9,15,4,7,-9,-13,-10,4
6608992267,-3,-14,-20,-19,1,-4,-9,-3
6609007348,16,19,-5,8,3,-5,0,2
6609007348,-13,5,7,-7,-15,-3,5,-3
6609007981,-5,-2,-5,-10,5,2,-6,-5
6609007981,0,-9,7,17,6,5,5,-1
6609021558,-2,-7,-19,-19,-5,-4,7,4
6609021558,-6,3,0,-4,-9,-6,-28,-5
6609029003,6,-3,5,10,1,-10,-4,5
6609029003,-5,-1,2,-2,9,19,2,-1
6609044107,4,0,-9,-7,-9,-9,-10,-3
6609044107,13,-4,3,-6,2,11,17,4
6609052287,-22,-7,1,1,2,-3,-7,-6
6609052287,2,-3,-8,-6,-3,-2,0,0
6609067320,-5,-11,-2,-5,2,-2,-3,-9
6609067320,-3,-9,-7,-3,-5,3,14,5
6609067942,14,0,-1,7,-2,-6,7,1
6609067942,-6,-6,11,-5,-3,3,-6,1
6609081586,-2,-4,-24,-8,0,4,2,0
6609081586,7,2,0,2,-4,-3,-4,-1
6609089106,0,1,17,12,-1,-3,-9,-1
6609089106,-9,-10,-11,1,7,-5,-3,-4
6609104132,9,5,-1,-13,-3,4,7,1
6609104132,-2,1,-1,-11,-6,2,0,4
6609112362,-9,0,-17,-7,1,-4,-8,-4
6609112362,6,3,-14,-2,-1,-2,0,4
6609127266,7,9,7,-3,-6,-2,-8,-1
6609127266,1,7,8,23,5,-1,3,0
6609127973,-12,-2,-5,-24,-9,-1,-2,-5
6609127973,2,9,29,29,7,5,5,-2
6609141615,4,-5,-38,-17,7,6,0,6
6609141615,-3,4,-8,1,4,-2,-3,-5
6609149097,-18,2,0,4,-3,1,-5,-5
6609149097,3,9,11,0,-6,-5,-5,-1
6609164129,-4,-23,20,19,8,4,5,1
6609164129,4,4,-15,-28,-1,-2,-2,-2
6609172231,10,32,-7,-10,-1,3,-1,0
6609172231,3,-13,-12,9,3,-5,-1,0
6609187296,-34,5,12,12,-7,-4,-1,-4
6609187296,8,-28,19,5,6,2,2,2
6609187966,2,49,-10,-11,-4,-4,-5,-3
6609187966,-4,5,-4,-24,-6,-4,-5,-6
6609201543,29,-22,17,16,10,3,0,6
6609201543,-21,21,-18,-5,-14,-7,-7,-4
6609209038,-24,-36,-12,14,15,10,6,-4
6609209038,-1,30,-6,-15,-8,-6,-4,1
6609224145,-10,21,2,7,-3,2,0,-3
6609224145,40,28,-5,-8,0,3,4,5
6609232246,-11,-4,32,12,-4,-3,-1,1
6609232246,-20,-3,30,18,-12,-2,0,-2
6609247295,4,-17,-24,-45,2,-2,-2,-1
6609247295,1,-1,-5,2,-1,1,-2,-2
6609247963,11,90,6,2,5,5,2,0
6609247963,2,-53,-23,-21,7,3,4,10
6609261631,-3,43,16,-5,-30,-15,-7,-7
6609261631,-2,-52,-18,-4,3,-4,-1,-2
6609269142,-10,-41,-6,24,-3,-2,-10,-6
6609269142,-5,-59,2,-28,-9,-9,3,-2
6609284085,12,-38,6,22,7,15,5,5
6609284085,0,38,18,-2,6,-1,3,3
6609292222,4,-52,-2,27,-13,-3,-5,-4
6609292222,19,18,-1,14,-13,-1,-2,-4
6609307267,-15,-2,-31,-30,22,-21,-9,-3
6609307267,-25,-30,22,12,-29,0,0,-8
6609308013,1,-12,9,4,13,0,9,0
6609308013,6,5,-33,-20,9,1,-6,3
6609329805,25,59,22,19,-1,7,17,10
6609329805,-22,-1,-4,35,3,0,-4,-4
6609330468,-6,-37,-19,-50,1,-3,-3,-5
6609330468,8,36,4,6,-12,-30,-3,-6
6609344064,-6,-6,8,5,-9,6,-13,-2
6609344064,7,10,1,-11,1,-1,-3,2
6609352286,-3,-27,14,44,5,5,6,3
6609352286,-11,5,19,-4,24,11,-15,-4
6609367253,-11,-19,-29,-9,-16,-9,13,0
6609367253,-2,-3,12,34,12,9,1,-2
6609367940,-5,1,4,-38,-21,-11,-11,-5
6609367940,-3,-3,1,5,12,4,2,-4
6609389731,-7,-1,-1,-3,-10,-6,-7,-6
6609389731,4,15,-4,-10,-10,-3,3,-2
6609390484,8,-1,3,-26,8,2,1,4
6609390484,-21,-14,-15,3,-6,-3,0,-6
6609404136,10,16,15,-5,1,5,1,3
6609404136,-5,-8,-3,-14,-5,-2,-1,0
6609412286,6,12,-5,-2,-10,-9,-5,1
6609412286,2,13,10,22,2,10,11,4
6609427230,-11,-11,-9,2,10,0,-1,-7
6609427230,6,8,16,-5,-8,-16,-13,-7
6609428000,9,-13,-9,9,3,-7,-24,9
6609428000,-8,2,-12,-9,-8,2,15,-4
6609441542,7,4,2,10,-2,-3,1,-2
6609441542,-7,-15,-10,-12,4,2,-5,-2
6609449095,2,4,-7,-7,-5,0,-17,-2
6609449095,-3,-25,-15,-7,-6,-1,7,-1
6609464105,-5,13,8,-2,2,-8,-10,-3
6609464105,-7,3,-1,-6,-1,-4,-2,-2
6609472286,15,7,-5,0,2,5,9,2
6609472286,-17,-4,1,2,3,-6,-6,-3
6609487303,1,-9,1,1,-3,17,23,5
6609487303,0,-5,-6,-19,-4,-6,9,0
6609487964,2,-8,-6,24,3,0,3,0
6609487964,6,-1,15,9,-1,5,3,-1
6609501473,-7,-4,-10,-21,-6,-14,-20,-5
6609501473,2,-7,-8,3,9,6,1,-1
6609509058,5,-13,4,-6,-4,2,8,-1
6609509058,6,26,6,-2,-4,-1,-6,4
6609524120,2,-20,-20,-4,-1,-6,-4,-6
6609524120,-5,-2,6,-2,-2,4,0,1
6609532303,-21,1,-24,-4,-3,-5,-6,-5
6609532303,16,11,10,11,1,5,18,5
6609546564,-2,11,-10,-13,-7,2,-5,-4
6609546564,-10,-21,-1,-9,-8,-8,-1,-1
6609554816,12,35,20,10,8,1,1,-5
6609554816,5,23,12,-8,2,4,-8,0
6609561480,-1,-11,-7,1,12,6,3,7
6609561480,0,-20,-25,-11,-6,-7,-4,-11
6609569109,-14,62,4,-4,-6,-2,7,10
6609569109,-3,-101,3,-8,-12,-7,-13,-3
6609584003,1,21,8,27,-1,-3,-1,-8
6609584003,-17,17,6,-26,1,1,-6,3
6609592308,0,-12,-7,10,7,2,6,0
6609592308,17,37,2,-15,-3,-5,-2,2
6609606613,-6,-45,-2,17,2,3,-4,-1
6609606613,5,1,17,7,3,3,1,2
6609614810,-18,-67,-8,-15,2,-2,0,-11
6609614810,23,95,-3,-10,-1,2,-6,7
6609621529,2,5,-1,-15,-3,0,4,6
6609621529,18,41,6,8,3,-3,-7,-1
6609629062,6,24,9,-21,-1,6,7,2
6609629062,-29,-8,1,27,-2,-5,-8,-7
6609644105,-10,-14,5,9,1,-4,-6,-4
6609644105,20,-6,1,9,3,5,8,8
6609652257,-8,-12,10,-8,-6,-3,-1,-1
6609652257,-13,9,-17,8,4,-5,-4,-8
6609666584,-5,29,30,-7,-16,0,-2,1
6609666584,11,8,-4,23,13,4,9,4
6609674545,22,-41,8,-19,9,2,1,10
6609674545,-10,0,-15,-7,-9,-1,1,-5
6609689765,-18,-5,14,4,12,-9,-2,-5
6609689765,2,-8,-23,-15,-16,-3,-8,-2
6609690440,-2,-23,-3,29,6,15,1,-8
6609690440,0,-41,-11,11,-3,-23,-2,1
6609704035,15,4,5,-24,25,-6,0,1
6609704035,-13,-4,-9,-8,21,-3,-2,-4
6609712226,-3,-1,0,23,-30,20,5,1
6609712226,3,-3,23,47,-12,0,0,-2
6609726511,6,10,-24,-69,24,9,5,3
6609726511,-16,-17,-6,25,29,-10,-1,-3
6609734755,10,14,-7,-34,-14,-4,-2,3
6609734755,-12,-25,0,-8,-6,-4,-5,-6
6609757953,9,6,1,25,3,-12,-13,-8
6609757953,-10,-16,-3,3,-54,3,-1,-3
6609758644,-3,17,4,24,25,-7,-3,-6
6609758644,19,28,-14,25,-4,6,5,10
6609764096,5,18,-12,10,18,-9,-5,1
6609764096,-4,2,-7,-34,-14,10,1,-5
6609772309,-1,6,4,47,2,-2,4,0
6609772309,16,27,0,-39,7,-3,0,6
6609786579,-9,-1,-9,-39,0,8,-4,-6
6609786579,6,15,21,43,-7,-7,-2,2
6609794804,8,22,-8,-47,6,-3,4,5
6609794804,2,-1,6,1,4,-3,-5,-2
6609809730,-6,-19,4,41,-19,5,2,0
6609809730,-1,-6,-12,-26,6,1,-4,-3
6609810445,-5,14,-2,16,2,-7,-2,-1
6609810445,-5,-11,-3,-32,3,3,0,-3
6609823977,-7,-14,1,-1,-28,-9,-8,-6
6609823977,-3,-16,-22,-18,2,-6,-1,0
6609832287,6,3,-11,27,-4,-13,-8,-1
6609832287,-16,-6,5,-8,-4,3,-1,-8
6609846569,-6,-19,-2,15,1,1,3,1
6609846569,1,5,2,-8,-2,10,4,-2
6609854784,12,3,-4,-10,-5,-1,-7,3
6609854784,2,-5,-1,-8,7,-2,1,1
6609869672,-19,-23,2,-1,-12,10,5,-3
6609869672,-5,-6,-1,1,1,-5,-5,-1
6609870422,-7,-11,0,-11,2,-1,0,-3
6609870422,-5,-9,-12,-3,-1,-2,-9,-5
6609884057,1,5,7,2,-9,-5,-4,-1
6609884057,7,8,4,6,4,3,2,6
6609892308,-1,-9,1,-4,-1,0,5,1
6609892308,2,-10,-6,-9,2,1,2,1
6609906505,1,10,1,5,-6,-2,-2,-7
6609906505,-6,-7,4,0,3,4,-20,6
6609914649,0,-21,2,-8,-9,-7,10,-4
6609914649,-10,-11,-2,-5,-1,-4,3,1
6609929598,4,1,2,2,-4,11,4,-1
6609929598,-2,-7,2,6,2,-6,-1,-9
6609930395,0,-2,-9,-10,2,3,-21,5
6609930395,15,1,-2,-5,-9,2,-7,0
6609943980,9,2,-8,-4,2,-6,-3,3
6609943980,-22,2,10,16,6,3,17,-5
6609952133,-11,3,6,1,-8,-5,-6,-1
6609952133,2,-9,-29,-8,0,1,2,-2
6609966553,17,10,19,3,-6,-3,-2,8
6609966553,-3,16,13,-18,-6,-2,-12,-3
6609974680,6,31,12,6,-3,-1,5,-3
6609974680,-16,-54,-20,-6,2,3,-10,-3
6609989760,3,11,-4,-3,-1,-6,7,3
6609989760,26,38,3,2,-3,-5,0,1
6609990472,-33,3,6,2,-1,-1,0,-4
6609990472,5,-10,13,-5,-6,-2,1,-5
6610003956,-20,-14,-8,18,14,12,2,0
6610003956,1,-11,-13,-20,-6,-3,1,-3
6610012100,19,-10,0,10,6,0,-3,-1
6610012100,-7,24,-1,-4,-11,-4,-3,0
6610026420,9,-12,-5,-9,-3,-16,-5,-2
6610026420,-10,17,-1,3,5,1,1,2
6610034607,3,-1,1,26,-14,3,4,-3
6610034607,-5,14,26,8,29,4,1,-1
6610049594,3,3,-28,-41,-28,10,1,2
6610049594,7,9,26,30,10,-10,1,2
6610050381,6,62,-38,-1,15,-9,-2,-2
6610050381,-22,-9,26,62,-15,7,3,-1
6610063947,-7,-31,-26,-70,8,3,-5,-7
6610063947,5,-47,26,0,-15,-9,-3,-1
6610072100,-13,-51,-43,-38,2,-1,-2,-1
6610072100,-7,24,8,-27,-28,12,5,1
6610086438,13,43,35,15,1,-10,-6,1
6610086438,20,-29,-2,5,-3,0,4,8
6610094589,0,34,-21,-53,-16,-4,-3,-10
6610094589,-6,-28,-41,2,14,-6,-7,-4
6610108928,-36,-32,5,18,-6,-3,6,-1
6610108928,8,25,-19,-16,-28,-14,-5,-3
6610117890,-8,-8,25,20,-5,-16,8,-3
6610117890,5,-29,0,30,74,14,1,4
6610123929,-14,26,-2,-6,-79,30,-2,-9
6610123929,-3,-3,-15,11,10,18,5,-2
6610132927,18,-21,2,-10,12,-11,4,4
6610132927,6,7,0,-36,-21,-22,9,0
6610146442,21,-4,5,37,44,-10,-1,4
6610146442,-14,1,-23,-21,59,-8,-33,-3
6610155402,-3,-18,18,-2,-43,38,17,3
6610155402,-5,19,12,-11,15,-18,-7,-3
6610168898,1,20,8,37,-14,-14,-4,0
6610168898,-18,-18,-17,-47,-24,-18,-8,-11
6610177939,-9,-7,-7,-27,9,-14,-14,-8
6610177939,11,18,-5,18,5,1,0,0
6610192788,16,31,23,86,14,-11,-8,0
6610192788,-4,-7,-25,-45,-4,2,9,-2
6610194420,-7,-30,-3,-14,-2,7,0,0
6610194420,-4,-7,-13,-37,-9,3,7,-4
6610206912,-10,-18,22,-2,-16,-10,-8,-6
6610206912,-6,-1,7,7,-3,8,9,0
6610215403,-1,-11,1,4,-6,-1,-1,0
6610215403,-2,2,8,7,-5,0,-7,-1
6610228925,20,12,-24,-23,18,8,8,8
6610228925,1,13,30,27,-6,4,7,3
6610237895,-1,0,-11,2,14,-1,-7,-1
6610237895,6,0,-3,18,-13,7,2,-1
6610252773,-5,-10,-17,-11,4,2,-7,-1
6610252773,2,1,9,-6,-3,3,16,2
6610254416,3,9,-34,22,6,0,-3,1
6610254416,17,8,15,7,-4,8,8,9
6610266451,-17,-13,-31,-31,3,-5,1,-7
6610266451,-12,-12,21,8,-3,-7,-25,-5
6610275404,-4,4,14,6,3,2,2,-8
6610275404,0,-2,6,-8,-15,-7,-9,-6
6610289043,-1,-7,-14,-15,10,9,2,5
6610289043,7,-3,-16,17,-3,1,0,-1
6610297927,-2,-4,31,17,3,-2,0,0
6610297927,-10,-6,-8,-15,-5,0,14,-3
6610312903,-4,-4,0,-1,-3,-8,-26,-3
6610312903,1,-12,-6,13,0,-6,21,4
6610314440,4,-12,10,-3,-1,12,-4,-2
6610314440,-1,-1,-14,-15,-5,-6,-10,-5
6610326580,0,-6,9,0,1,2,4,2
6610326580,-9,-7,-6,-5,-2,-3,-4,-5
6610335443,-3,4,-10,-1,-2,-12,-1,0
6610335443,6,9,-9,8,-7,-4,-8,0
6610349084,-8,-4,25,-5,0,2,12,-4
6610349084,4,15,-22,-1,-1,2,-3,0
6610357951,4,16,12,12,-6,-13,-7,3
6610357951,-10,-4,-10,-16,-5,7,-1,-2
6610364055,7,-16,19,31,13,0,2,-3
6610364055,-7,19,-69,-32,3,10,5,-1
6610372959,-4,6,8,-9,-10,-10,-10,-8
6610372959,8,18,-26,29,5,5,8,11
6610386470,-7,-60,-3,-6,1,-7,-2,-4
6610386470,-7,-23,10,-4,-8,-9,-6,-8
6610395456,-5,-21,-14,-2,1,6,5,2
6610395456,25,95,33,-9,-3,-4,-3,1
6610409021,-38,-40,-23,0,-7,0,-2,-10
6610409021,19,-47,12,18,8,4,1,6
6610418028,-18,12,11,2,-3,-2,-4,-8
6610418028,-26,-63,-19,-32,-5,-4,-8,-7
6610424035,2,47,4,-1,1,3,3,3
6610424035,5,35,24,14,-2,1,1,-3
6610432939,17,-8,-5,2,2,-5,-5,0
6610432939,-14,-37,-3,0,-3,-4,-25,-3
6610446517,4,6,19,-11,1,5,21,9
6610446517,-8,14,4,4,-3,2,-3,3
6610455437,33,63,9,-6,5,1,-7,0
6610455437,-7,0,14,11,-2,-3,-2,-2
6610469048,9,54,1,-6,-10,-6,-7,-1
6610469048,-16,-32,-3,-13,2,2,1,-3
6610477927,7,46,0,3,-6,-6,7,2
6610477927,-24,53,19,5,-15,3,-3,-6
6610484062,-5,8,6,-10,9,-5,-10,-5
6610484062,4,23,12,21,-4,-3,4,-1
6610492935,0,-45,-3,-16,-5,-1,-1,0
6610492935,-2,-47,-14,5,4,0,8,-2
6610506478,13,-8,-13,-23,-14,-1,-2,-2
6610506478,3,-8,5,17,4,0,-2,3
6610515419,-13,-21,-27,-5,11,2,1,1
6610515419,7,-24,20,0,9,-6,-3,2
6610529080,-9,-3,11,28,2,18,8,-6
6610529080,5,-15,-4,-25,-15,-12,-1,-1
6610537893,-3,-5,-11,-27,-2,7,5,7
6610537893,-4,-3,-2,27,19,1,6,-1
6610543944,10,-2,3,-13,-7,-5,-3,1
6610543944,1,12,-8,9,-4,2,-3,-4
6610552926,-17,-16,1,-1,5,-15,-6,-8
6610552926,-1,-6,-9,-23,-28,2,-5,-4
6610566575,5,1,-18,31,25,-8,-2,-1
6610566575,-26,-41,5,-25,0,19,5,-7
6610575420,4,-5,-4,7,1,-8,-2,0
6610575420,23,0,10,16,10,-2,1,8
6610589113,-10,-1,-17,-45,-24,-13,-5,-3
6610589113,-1,6,2,15,20,-1,-2,-3
6610597897,-11,-12,9,58,-10,1,-3,-5
6610597897,-13,-15,-17,-55,-2,6,1,-7
6610612877,12,0,0,19,8,9,7,7
6610612877,4,27,5,-21,-7,-4,-4,-1
6610614363,-10,-7,-8,-16,-5,6,4,0
6610614363,24,34,18,36,6,2,8,10
6610626536,-4,-4,11,-15,-1,-6,-9,-9
6610626536,-6,3,-2,10,-14,-4,-3,1
6610635423,2,-14,6,4,5,10,3,3
6610635423,1,11,-1,-3,8,0,9,-3
6610649051,-7,-13,-15,-13,-4,1,0,-1
6610649051,2,3,-8,3,-11,-12,-6,-4
6610657939,4,17,16,-8,-1,-8,-30,0
6610657939,-11,-20,-4,-10,-10,-6,5,-2
6610672908,4,-2,-3,-3,-5,-7,-3,0
6610672908,10,5,1,9,11,6,5,8
6610674410,-1,-6,-5,-12,-2,-3,8,-3
6610674410,-7,-16,-11,-6,-8,-5,-9,-8
6610686513,4,-2,0,9,5,4,2,4
6610686513,-4,4,7,2,6,-6,11,4
6610695398,-8,-9,-5,-7,-5,12,4,-7
6610695398,5,-5,-2,5,-3,-2,-4,4
6610709047,0,-3,-6,-1,0,-2,10,-6
6610709047,6,-7,-6,-7,-2,1,-4,4
6610717909,-2,-13,-1,0,1,-3,9,0
6610717909,-5,-2,-3,-1,0,-9,2,-2
6610732798,-4,-6,-5,-3,-3,4,-5,-6
6610732798,0,-8,-7,0,-3,-8,-12,-6
6610734404,5,-6,0,1,2,6,32,4
6610734404,-10,-3,4,4,-3,-3,-3,-1
6610746488,-4,-2,-10,-5,-4,-3,-3,1
6610746488,6,10,10,3,-2,-3,-5,-5
6610755458,-4,8,-4,-6,1,0,2,0
6610755458,13,8,2,4,-4,-1,-1,0
6610769063,-5,2,-14,-6,6,1,0,3
6610769063,0,2,-28,0,-4,3,-2,-1
6610777917,6,12,12,2,-1,-3,-7,2
6610777917,-26,-10,9,16,2,0,-4,-7
6610792931,-3,7,2,-1,-5,-3,-6,2
6610792931,-4,-2,-8,-19,-1,1,-1,0
6610794391,7,-1,-2,4,-2,-3,-10,-3
6610794391,26,12,-4,-8,-6,2,3,2
6610806494,-1,-8,22,12,10,1,4,2
6610806494,-41,20,5,0,-1,-1,-1,-8
6610815392,9,9,-10,-11,-5,-8,-7,-1
6610815392,8,57,2,4,2,2,-1,1
6610829004,15,3,14,13,-17,-12,-20,-7
6610829004,-39,-57,-23,-19,5,4,14,-9
6610837903,-10,30,-25,-18,5,8,-3,-5
6610837903,8,-2,38,57,0,-2,-8,2
6610852878,-41,8,-74,-32,8,-1,-2,-8
6610852878,28,48,31,-4,-4,-3,1,6
6610854365,-8,-23,24,36,-3,-7,-11,-1
6610854365,-7,24,-56,-65,-9,-5,-2,-9
6610866428,35,0,66,14,-11,-2,3,14
6610866428,-15,47,10,17,4,0,-10,-11
6610875370,-6,8,8,1,1,2,8,4
6610875370,-57,-70,-20,-11,9,2,-1,-18
6610888970,51,44,4,-8,-4,1,4,10
6610888970,17,-23,23,10,4,3,0,7
6610897936,-27,-31,-33,-37,-3,-3,-10,-6
6610897936,7,18,-5,22,-17,-5,8,0
6610912982,-36,-23,-23,-29,3,-1,-3,-8
6610912982,44,58,15,3,-4,2,7,2
6610914398,-14,-14,-3,-22,5,8,-10,-1
6610914398,-5,-30,-8,-1,-7,-9,-2,2
6610926350,5,58,-4,-11,2,4,4,0
6610926350,12,-14,7,15,8,-7,-9,5
6610935412,5,-58,10,24,-13,-11,18,-2
6610935412,7,-14,-10,-50,-9,-9,-13,3
6610949077,-7,-57,16,77,19,3,-12,-9
6610949077,-12,-46,-24,-40,-4,5,36,6
6610957909,9,-16,-2,-4,16,6,-5,-4
6610957909,9,-10,23,27,19,18,10,6
6610972935,-6,-7,6,23,14,-14,8,-2
6610972935,-2,-6,-9,-6,-27,10,-14,-4
6610974398,-8,15,1,-5,-1,-15,-4,-2
6610974398,9,-10,-8,11,-10,-6,-4,1
6610995412,-2,7,8,-21,3,2,-4,0
6610995412,-14,-26,-29,0,-26,-12,-10,-11
6610996925,12,18,0,-5,-5,10,7,5
6610996925,0,12,0,3,23,-2,-10,-4
6611009066,-14,-35,-10,0,-20,10,6,-5
6611009066,-9,-4,8,-14,3,-7,-10,-6
6611017934,9,14,-4,-39,-24,-9,-2,-2
6611017934,-9,-30,-17,-14,12,6,2,-4
6611032882,9,17,0,-6,-1,6,5,8
6611032882,13,23,4,21,-7,-19,-9,-4
6611034392,-8,-12,4,20,5,1,1,-3
6611034392,4,18,17,11,5,7,4,4
6611055385,10,1,-23,-39,-18,-9,-10,2
6611055385,-13,8,-3,8,10,2,-8,-2
6611056948,1,-18,17,21,7,4,7,3
6611056948,-8,4,2,-6,-12,-13,-12,-4
6611069761,1,12,-4,10,4,14,38,3
6611069761,-6,-14,6,6,7,3,-3,-3
6611076531,11,33,-5,-2,-4,-6,-4,3
6611076531,15,19,6,-1,-9,-3,-6,-2
6611092911,-24,-15,1,-8,-2,-4,-9,-13
6611092911,-5,-2,-1,-3,4,-1,-4,0
6611094391,0,3,-2,6,-3,5,10,-1
6611094391,5,-2,-6,-4,-4,4,12,0
6611106500,-11,-6,-9,-4,-3,-7,-7,-3
6611106500,9,-2,-5,-4,-1,3,-8,7
6611115443,9,3,-1,10,3,-11,-19,-5
6611115443,-2,1,5,-5,1,3,5,0
6611129608,-10,-2,3,-2,-5,-2,-6,-1
6611129608,-15,-19,-5,11,6,4,2,-1
6611136439,11,-33,6,28,1,-6,-9,-3
6611136439,-14,17,-26,-49,-2,1,1,1
6611152922,-4,-10,-11,-2,-7,-1,1,-2
6611152922,8,11,19,-5,-1,-3,-5,1
6611154351,-1,-5,-11,13,3,0,0,-1
6611154351,5,-10,11,6,-6,-2,-2,-2
6611166601,-1,-15,-15,7,1,-1,-8,-2
6611166601,5,-10,15,-12,6,-6,11,3
6611175368,-6,7,0,5,10,20,-2,-1
6611175368,3,-6,16,10,-1,-2,4,-1
6611189792,6,20,-2,-11,-7,-4,6,-2
6611189792,5,-1,-19,4,-3,0,-43,5
6611196554,-12,9,-4,-15,-6,-2,16,-6
6611196554,11,13,-4,-2,-4,-10,-9,1
6611212877,-5,-5,8,4,-1,-2,-7,-4
6611212877,-5,-1,-13,-2,2,-15,11,-4
6611214396,-3,7,-2,-4,0,11,-7,-8
6611214396,-3,1,0,4,-2,-14,-26,3
6611226433,0,5,5,-1,-1,10,-66,-5
6611226433,9,-3,1,3,4,27,75,14
6611235438,14,15,0,-7,-6,-17,16,1
6611235438,-13,24,7,9,0,-53,8,-4
6611249711,9,-29,6,-6,-3,62,9,-4
6611249711,-10,26,-10,-8,-12,-10,-17,-11
6611256546,-14,36,13,11,10,12,-6,5
6611256546,6,0,-2,13,16,12,7,-7
6611272848,16,-16,10,3,4,-19,13,10
6611272848,-3,-13,15,20,1,7,-1,3
6611274372,-3,39,-2,-40,-19,-20,-7,-5
6611274372,0,21,7,44,-1,14,-5,2
6611286519,-1,22,10,-15,14,-4,9,-1
6611286519,12,-32,-33,-26,-4,4,-5,-3
6611295376,23,-4,10,5,5,-7,-7,8
6611295376,-11,-8,-6,-10,-6,15,5,5
6611309682,1,-41,-18,9,2,-11,-2,-8
6611309682,-22,-20,2,2,-1,-8,-3,-4
6611316438,-35,64,-9,-17,-13,-8,-12,-15
6611316438,-5,-9,11,4,-7,4,14,-5
6611332828,24,33,9,7,-7,-10,-10,9
6611332828,-21,24,-2,-16,4,3,-8,-10
6611334410,8,-56,-15,22,12,10,4,3
6611334410,13,46,3,-4,1,11,7,11
6611346354,-16,-35,-8,3,-11,-21,5,-2
6611346354,12,21,16,9,0,3,-8,-1
6611355516,-1,-28,-16,-5,-4,-6,-11,-10
6611355516,20,44,7,-2,0,6,2,4
6611369730,-13,-33,1,-1,-1,-1,3,-1
6611369730,-2,-4,-3,-14,-10,-8,4,4
6611376479,-6,-43,-5,-6,8,14,1,4
6611376479,-1,-31,-10,-10,-2,11,18,-1
6611391892,-9,-14,-3,12,15,-17,-26,-2
6611391892,5,-5,12,1,4,-1,5,-6
6611400365,6,1,17,15,-33,-4,-14,14
6611400365,4,-40,-17,2,12,17,-8,-5
6611406518,-8,12,4,-7,8,-9,4,-5
6611406518,17,3,-2,18,-22,-18,-1,1
6611415396,-11,-9,-1,-18,17,-1,-1,-4
6611415396,0,-3,24,47,-6,-8,-8,-1
6611430189,4,11,-22,-50,-12,4,9,1
6611430189,4,4,-1,-12,2,0,-11,-2
6611436510,1,-17,-20,-12,13,-4,2,-4
6611436510,1,-11,-15,-17,-17,-5,-3,3
6611452208,2,31,8,25,0,-3,6,-3
6611452208,-3,-6,-2,-14,12,2,-3,-2
6611458958,-6,-1,3,18,-11,0,2,-2
6611458958,-2,-15,7,-7,15,2,0,-4
6611466498,-4,11,-8,-2,-3,6,5,3
6611466498,-5,-32,-9,20,-1,5,-1,-4
6611475380,-9,-4,12,4,-11,1,3,-1
6611475380,-11,-13,-12,-33,1,-12,-23,-6
6611489710,4,16,10,5,4,3,13,1
6611489710,13,14,-8,7,-2,9,-3,4
6611496486,-1,31,14,-2,1,-7,-2,-1
6611496486,-12,-20,-7,-10,0,-3,3,-11
6611512162,-1,-18,-4,-3,-13,-2,-24,5
6611512162,5,0,7,-1,9,4,-3,-3
6611519061,-4,-9,-6,-3,-9,-19,-3,-3
6611519061,-12,-12,-7,-12,-6,13,4,-1
6611526427,-3,2,-6,3,-1,3,9,-6
6611526427,2,-10,-3,-2,-2,-12,12,-5
6611535407,6,1,0,-3,2,10,12,6
6611535407,14,9,12,9,0,-9,-8,1
6611549709,-4,1,0,2,-1,-2,4,-4
6611549709,-39,4,1,-1,-5,-4,-2,-10
6611556538,0,-6,-3,3,6,5,7,3
6611556538,-6,-23,-7,-9,0,-5,-2,-2
6611572183,10,1,1,2,-4,-1,3,0
6611572183,25,7,2,1,-2,-4,-11,5
6611586519,-10,2,0,1,1,-3,-4,-5
6611586519,1,-7,-6,-6,-7,-9,-3,4
6611595331,-3,8,3,-1,-3,12,3,-1
6611595331,-1,1,-1,2,3,0,-2,-2
6611596919,0,-10,1,3,2,2,-23,3
6611596919,13,6,-11,-5,-2,0,5,-1
6611609627,-12,4,-2,-2,-3,-8,-2,-1
6611609627,5,4,8,-3,-2,6,11,2
6611616455,10,7,-5,5,2,1,4,0
6611616455,-14,0,4,-3,-4,-2,-8,-5
6611632161,2,22,8,8,4,-5,3,1
6611632161,-19,-50,-18,-8,-6,-1,-16,-4
6611639054,6,-5,2,3,10,3,10,2
6611639054,20,43,6,11,-1,-3,-4,8
6611655361,-3,19,6,-10,1,0,-4,1
6611655361,-1,-63,-34,0,3,2,0,1
6611656948,-40,37,-7,-23,-7,-2,-3,-5
6611656948,6,-12,-1,5,0,-2,4,3
6611669088,-6,37,-6,-5,-3,-2,-4,-7
6611669088,27,-65,25,26,2,1,1,3
6611677938,-18,30,-13,-18,-3,-7,-6,-7
6611677938,-25,-74,-3,12,-9,1,-5,-4
6611692057,24,-7,23,21,8,0,0,1
6611692057,2,20,-40,-78,-8,-5,0,3
6611699049,25,25,-4,9,-5,-3,-5,-5
6611699049,6,35,1,-4,-4,-1,3,6
6611715321,-9,11,-6,23,0,-6,1,-4
6611715321,1,101,53,75,2,3,4,2
6611716950,2,-44,-33,-39,-4,-3,-16,-6
6611716950,10,49,-6,-12,6,2,2,5
6611728954,-21,-11,5,-7,1,5,-1,-4
6611728954,-1,31,-12,-19,-13,-6,0,-2
6611737914,29,47,26,26,6,5,15,9
6611737914,-15,-3,17,20,-6,-3,-10,-4
6611752107,5,-23,-12,-25,-9,-2,6,0
6611752107,-2,33,0,4,12,-3,-4,2
6611759074,-24,-14,8,31,14,9,1,-1
6611759074,13,5,-22,-25,-2,-3,-3,-8
6611775345,-30,41,14,-3,-8,-5,2,-2
6611775345,-8,-27,-7,8,10,-6,-11,1
6611776945,3,-16,-7,-40,-16,0,-11,-9
6611776945,-2,-17,6,13,-16,-17,3,6
6611789082,8,-49,-22,-37,-12,3,-13,-7
6611789082,3,-25,-5,12,21,-2,8,3
6611797939,-10,-25,13,13,-11,-1,5,-1
6611797939,-4,-35,-3,8,24,10,0,-2
6611812185,17,-8,-3,-4,7,-10,0,8
6611812185,-13,-8,3,-10,-19,-1,-2,-5
6611819066,14,-13,-1,-8,9,-11,-5,3
6611819066,-11,-13,-14,-36,-14,7,3,-6
6611835355,11,4,16,57,11,-3,4,2
6611835355,-15,7,-14,-30,1,5,5,-2
6611836820,0,-10,-3,0,-11,-13,-5,-3
6611836820,0,14,-2,-22,-6,-2,-4,-3
6611849084,1,4,-14,11,-1,0,0,-2
6611849084,-4,-15,-1,-6,-19,-11,-10,-7
6611857921,3,5,2,16,4,10,8,1
6611857921,7,11,-7,2,3,0,-1,2
6611872125,6,15,-14,-14,-10,-1,-5,0
6611872125,-9,6,9,-7,-8,0,1,-5
6611878988,7,-6,4,22,4,-1,0,-3
6611878988,-9,-6,-11,-2,11,5,5,3
6611894465,-8,-6,-2,-7,-3,0,-5,-5
6611894465,2,8,15,8,11,10,7,0
6611902932,-4,-7,-4,4,-2,-4,-17,0
6611902932,3,3,2,10,0,-3,13,-1
6611909003,-14,-14,2,-6,-1,0,1,-3
6611909003,-5,-19,-1,0,-5,-8,-13,-7
6611917891,5,3,2,-3,0,8,7,3
6611917891,-5,8,15,6,-1,-1,-4,-8
6611932035,-3,-8,-6,-16,0,1,7,3
6611932035,1,2,-6,1,0,3,17,3
6611938984,1,-6,-3,-1,-1,1,3,2
6611938984,-3,5,2,-2,-2,-5,-7,-4
6611955346,-1,-11,0,2,-4,-16,-10,-7
6611955346,5,10,0,2,-2,15,-6,0
6611956933,-7,-12,-1,-1,2,2,3,-1
6611956933,5,-1,-5,-3,-6,-7,-4,-2
6611969019,-12,-13,-3,-2,-1,-7,-4,-9
6611969019,12,13,1,4,1,6,-2,10
6611978021,19,16,4,-4,3,-4,1,5
6611978021,-14,-13,1,-3,-5,-3,11,-1
6611992173,8,-3,0,1,3,5,9,1
6611992173,-21,-16,-5,-2,-3,-8,-3,-10
6611999084,2,-16,-5,-2,-5,1,-2,6
6611999084,-10,1,3,3,-1,-13,-6,-6
6612015300,8,5,1,-3,-1,14,23,1
6612015300,14,-1,-3,0,1,4,-6,4
6612016846,-19,2,-1,-6,-3,-5,-2,-3
6612016846,-1,-5,-4,0,-1,-14,-4,-3
6612037867,2,4,0,-1,3,15,-2,-1
6612037867,-2,6,1,2,1,-4,-8,-3
6612039363,5,-1,-5,-2,-2,-2,9,1
6612039363,0,-3,6,1,0,0,-5,1
6612052189,4,-3,-11,-9,-1,-6,-16,-1
6612052189,17,10,-1,0,-1,-5,6,2
6612058928,-22,10,5,-1,-3,-3,-7,-6
6612058928,-19,-4,1,1,-3,12,1,-3
6612075353,33,22,8,20,9,-1,-3,10
6612075353,-29,-18,-24,-16,1,0,1,-6
6612076846,4,-6,7,36,-5,-7,2,-2
6612076846,-23,54,2,-40,0,3,-9,-6
6612097882,-1,27,25,28,-5,-1,1,4
6612097882,23,-79,-18,-48,1,-1,3,8
6612099364,12,14,0,30,5,2,-5,-12
6612099364,6,72,13,-4,-2,2,1,9
6612112160,-22,-63,-6,-2,-4,-12,-13,-9
6612112160,1,60,6,0,1,6,9,4
6612118981,40,84,20,10,-6,2,2,18
6612118981,-15,-66,-31,-14,7,4,-7,-20
6612135372,6,39,21,-7,-10,-1,-7,7
6612135372,-7,-4,-52,-38,-8,-3,-9,-10
6612136940,11,81,25,20,13,13,15,6
6612136940,0,-74,5,33,1,-1,0,3
6612149037,-16,14,-25,-28,-7,-1,4,-4
6612149037,14,-15,26,25,-8,-11,-7,0
6612157915,-13,12,6,-27,-12,-6,-9,-6
6612157915,11,-30,-31,-1,11,5,-1,1
6612180385,-9,10,-13,-14,-14,-3,10,-1
6612180385,-11,-40,35,114,8,-1,-6,-4
6612181941,-23,-8,-34,-71,-5,-11,-5,-9
6612181941,16,17,-7,-13,5,5,9,4
6612195363,0,-8,8,24,8,-5,-17,-2
6612195363,0,39,-4,-15,-3,3,2,-1
6612196945,0,-47,-1,25,-4,0,-6,-3
6612196945,-8,12,10,7,4,0,-4,-4
6612208941,-7,-3,-20,-26,5,6,33,5
6612208941,6,27,25,11,-10,-10,-2,-1
6612217897,-4,-28,-5,-11,5,2,-3,-2
6612217897,18,9,-1,-4,1,7,6,3
6612232132,-7,-13,5,22,-7,-12,-21,-5
6612232132,-8,-12,2,-1,15,3,15,-2
6612246528,-5,-34,-10,-17,2,7,1,-8
6612246528,6,-35,-15,7,-9,-2,9,7
6612262754,-9,-18,5,4,6,-1,-8,-2
6612262754,-5,2,-5,-17,-11,-4,-3,-3
6612264328,0,-21,-12,-23,-1,-6,-12,-4
6612264328,0,28,27,19,-6,-5,-3,-2
6612268984,2,-12,-16,-26,6,5,-2,1
6612268984,-12,4,-14,-11,0,-1,-6,-1
6612277914,4,-7,0,9,1,-1,9,2
6612277914,-8,22,9,-4,-6,-4,-10,-4
6612291449,13,-30,10,20,1,0,4,1
6612291449,3,19,8,1,1,-1,-7,-1
6612300343,-8,-17,1,0,-2,-4,-2,1
6612300343,6,-7,-13,-19,-9,-2,-2,1
6612315307,-13,-2,-25,-22,-2,-2,-11,-5
6612315307,-2,14,7,-7,-7,0,1,-2
6612316923,-6,-17,1,15,2,-1,2,1
6612316923,8,29,7,-4,3,0,-2,-1
6612337798,-18,-22,-1,-3,-2,2,1,-5
6612337798,2,-2,1,-2,-5,-6,-3,1
6612339316,-3,-5,-4,5,-2,-4,-5,-2
6612339316,2,-6,-15,-21,-7,-1,0,1
6612351516,18,35,12,2,4,1,-2,5
6612351516,-4,0,0,2,8,3,3,3
6612360436,1,-9,9,19,3,5,2,-1
6612360436,-9,-8,6,-16,-1,-3,-5,-4
6612374691,2,-3,-8,-5,-2,-2,-1,-2
6612374691,3,-3,-10,-16,-6,-5,-2,-2
6612381490,-2,-10,-8,-12,-11,-10,-8,-2
6612381490,2,0,6,24,6,9,3,2
6612388984,4,-2,1,-12,4,2,8,-1
6612388984,-11,12,0,0,-2,0,-3,-2
6612397839,-9,-3,-8,-7,-2,-2,2,-2
6612397839,-3,2,3,5,-2,-3,-6,-4
6612412223,23,15,6,6,4,1,-1,6
6612412223,-2,-1,-3,2,3,2,8,-2
6612418920,-12,-15,0,-8,-1,3,-18,1
6612418920,-13,3,-6,5,-12,0,-6,-7
6612434683,0,-8,-3,-1,2,-10,-2,-1
6612434683,-12,16,5,9,3,-3,-3,0
6612441400,-8,-6,-10,-23,-11,-4,-6,-2
6612441400,9,2,3,8,0,-7,-2,-2
6612448976,-5,7,4,7,-4,0,-6,-5
6612448976,12,-24,-14,-1,10,5,-7,-2
6612457911,7,3,-4,-10,-3,-2,8,3
6612457911,-5,-16,7,11,4,2,0,1
6612472157,2,5,-7,-20,-12,-3,1,-1
6612472157,-5,-6,5,-4,-5,-3,-1,-5
6612479019,2,12,6,22,4,2,4,0
6612479019,6,-23,3,2,5,-1,0,0
6612494678,-5,15,-11,-22,-2,1,-3,-1
6612494678,-13,-28,-8,-2,-4,-7,-3,-5
6612501352,7,-3,4,-3,2,-3,1,-1
6612501352,-1,5,-1,13,-1,0,-1,0
6612517854,-4,-20,1,21,8,7,3,2
6612517854,4,19,-4,-10,-7,-5,-6,-3
6612519337,-5,-3,-15,-9,0,3,4,-2
6612519337,-9,-13,0,-12,-6,-5,5,3
6612532166,13,0,5,5,0,-3,-3,-3
6612532166,-22,12,10,11,2,4,3,-1
6612538934,-3,3,2,-9,-3,-2,-3,-4
6612538934,14,3,-3,7,2,-1,-2,3
