timestamp,emg1,emg2,emg3,emg4,emg5,emg6,emg7,emg8
12361585014,7,3,-1,7,-7,-2,-2,-2
12361585014,-9,1,-10,-2,13,0,-1,-3
12361590605,-3,-3,-4,-6,-7,0,-1,-1
12361590605,4,5,-2,17,24,8,4,5
12361591270,2,0,-2,-12,-11,-5,-8,1
12361591270,0,-1,-3,-18,-8,-4,-2,-3
12361592883,-7,-6,-2,23,1,0,3,0
12361592883,-4,-2,-7,-21,-14,-4,-4,-3
12361603520,-1,0,0,5,6,3,3,0
12361603520,4,3,4,-3,-7,1,0,1
12361615021,-1,-1,5,-7,-6,-5,-2,1
12361615021,-5,-4,-1,3,-8,-4,-2,-4
12361618546,0,-4,-2,-8,-4,-3,-1,-2
12361618546,1,-1,-2,-8,-5,0,-2,-3
12361634937,3,1,0,9,3,1,-1,-3
12361634937,3,3,2,8,0,-2,-1,-2
12361642244,-6,-2,-3,-19,-3,-2,-1,-3
12361642244,-1,0,2,-1,-5,-1,0,-1
12361649979,-2,-2,9,-6,-10,-4,-5,-3
12361649979,-3,-2,-5,-7,4,4,3,-1
12361663619,3,1,5,24,10,2,0,3
12361663619,0,0,0,3,-5,0,0,2
12361702213,-3,0,0,-3,0,1,-2,-3
12361702213,-3,-4,-4,-6,-6,-3,-3,-2
12361710291,-5,-3,-4,-9,-6,0,-7,-5
12361710291,5,3,5,11,5,0,4,-1
12361711072,-3,1,-6,-7,2,-2,1,-2
12361711072,0,-2,0,-1,0,1,-4,0
12361712658,3,-3,0,-13,-3,-3,3,3
12361712658,-4,-5,1,11,1,-1,-7,-1
12361723367,7,-3,-5,-1,-2,0,2,0
12361723367,-9,10,11,14,4,-1,6,-2
12361732265,-8,-12,-8,-15,-6,0,-4,-4
12361732265,-5,-2,0,0,4,2,4,0
12361738354,-9,-3,6,7,-1,-1,0,-5
12361738354,9,2,-3,-4,0,0,-4,3
12361754738,5,6,-2,7,1,-1,3,0
12361754738,-1,2,1,-7,-2,-2,-1,1
12361760763,-4,1,-1,3,2,1,-2,1
12361760763,7,-1,5,-2,-3,-3,-1,-1
12361769787,2,-1,2,7,3,1,-2,1
12361769787,3,2,-5,-8,-1,1,0,2
12361783371,-9,-1,4,-2,-5,-2,-5,-2
12361783371,-8,-12,-9,-10,-7,-1,-1,-5
12361792234,-6,9,10,18,8,1,2,-4
12361792234,5,1,-2,1,-6,-4,-4,-2
12361798419,13,6,11,5,5,1,3,8
12361798419,-2,-9,-2,-6,1,-1,3,4
12361814711,-1,-11,-19,10,8,-1,-1,-2
12361814711,-7,8,-2,-7,2,0,-1,-4
12361820785,13,10,-5,-2,-7,-5,-4,-1
12361820785,-5,7,10,-16,-5,-1,0,0
12361835839,1,-1,17,11,-5,-2,-2,1
12361835839,-12,-23,-4,7,11,4,2,-3
12361843360,-8,0,3,-4,-2,-1,-2,-4
12361843360,12,15,-10,1,4,-1,-3,-2
12361852232,17,56,69,2,-3,-1,4,7
12361852232,-22,-22,-84,-36,-17,-9,-10,-10
12361858380,13,10,2,17,-6,-4,-2,-1
12361858380,-15,-16,-5,-39,10,3,6,3
12361874727,2,7,4,37,6,1,-1,-1
12361874727,3,-26,33,3,-4,-1,0,2
12361880742,-16,10,-20,-17,-11,-7,-7,-5
12361880742,5,-7,-6,8,-7,-7,-6,-7
12361895854,7,-17,-9,-22,-5,-2,-2,2
12361895854,4,15,4,-2,-5,-11,-9,-2
12361903368,-4,-7,-6,8,15,18,8,0
12361903368,-9,5,15,15,0,-15,-6,-3
12361912259,-23,-46,-34,-18,-9,3,-18,-10
12361912259,7,3,6,-1,-15,-14,2,0
12361918277,-5,1,6,-4,4,7,10,-7
12361918277,25,14,-3,5,1,-10,-31,9
12361934755,-10,4,-10,-1,10,20,25,4
12361934755,-7,1,9,9,21,34,10,1
12361940875,-2,-11,2,1,-8,-20,-2,2
12361940875,0,-1,-1,11,18,-18,-7,-4
12361955863,1,9,-23,-34,-27,-11,3,-4
12361955863,6,24,20,22,22,25,11,4
12361963366,-4,-5,-9,-13,-4,-2,-5,-3
12361963366,-4,-6,-2,6,-25,15,-1,-3
12361972255,4,4,-1,-12,30,-6,-6,2
12361972255,-1,-5,4,19,-16,-11,7,1
12361978361,4,-16,-7,5,24,-3,-13,0
12361978361,-4,2,-4,16,8,20,7,1
12361994672,-5,-8,7,10,3,7,7,-2
12361994672,4,-1,-2,-44,-29,-18,-10,-3
12362000873,-6,-10,6,-12,-35,-23,-2,-1
12362000873,-2,-1,-15,10,-1,3,5,-1
12362015767,-2,-6,-10,-34,-22,6,-3,-3
12362015767,-4,-4,-2,5,36,5,2,0
12362032223,3,7,1,8,-13,-22,-8,1
12362032223,7,14,0,3,14,34,19,3
12362033675,-1,-15,-6,6,-1,-4,-2,0
12362033675,0,9,20,16,-21,-9,-3,1
12362038272,1,-3,-23,-16,17,18,8,3
12362038272,-1,-6,8,-52,3,-3,9,3
12362054768,-4,-5,-12,59,15,-4,-12,-1
12362054768,-3,0,-5,-30,-16,-6,-9,-5
12362060860,-4,0,22,24,-11,7,-4,-4
12362060860,-2,-7,-10,18,11,-7,2,-1
12362069733,8,16,8,-4,-4,-18,-8,4
12362069733,-2,2,-6,-3,4,9,0,-5
12362083371,-3,-2,5,-4,-5,5,3,-1
12362083371,-3,-10,-10,-19,-11,-10,-5,-5
12362092266,-2,0,4,3,0,-4,-1,-1
12362092266,3,-3,-3,10,-6,-6,-5,1
12362098324,-4,-1,-1,-17,-2,2,0,-1
12362098324,-10,-3,2,11,-2,-5,1,-4
12362114760,10,5,-1,-2,0,-1,-18,-1
12362114760,-9,-9,-10,-9,-4,-5,8,0
12362120825,0,2,1,-5,8,8,1,3
12362120825,-7,-13,-7,12,-1,-3,-1,-3
12362135853,2,6,7,-4,-9,-3,3,-1
12362135853,6,12,-6,-3,5,1,-3,0
12362143364,2,0,37,10,6,2,1,1
12362143364,-4,-4,-8,0,-9,-2,-2,-6
12362152262,-5,-1,-6,-12,0,-2,3,-2
12362152262,0,3,10,10,0,-4,-5,0
12362158350,10,3,-13,-12,-3,-3,1,0
12362158350,2,-1,4,-7,-15,-8,-6,0
12362174733,-14,-7,-2,1,7,5,6,-6
12362174733,0,-5,-2,-6,1,-4,-11,-1
12362180855,6,1,-1,5,-6,2,-2,1
12362180855,-1,2,-4,7,2,-4,4,-2
12362195856,-10,-1,-7,-6,2,1,3,-3
12362195856,5,4,6,10,3,-1,3,3
12362203352,-6,-6,-8,-16,-6,1,-4,-4
12362203352,-12,2,14,3,-6,-7,-6,-1
12362212257,15,-2,-5,6,0,6,4,-2
12362212257,-3,-1,-17,-8,-2,0,2,2
12362218275,-1,-8,-15,-6,-1,-2,-3,-4
12362218275,-5,5,17,14,-5,-2,-1,-1
12362234678,-3,-13,-13,-23,-1,2,1,-2
12362234678,5,-3,11,-28,-4,-2,-4,1
12362240826,0,1,-35,23,7,0,0,1
12362240826,0,21,18,-20,-5,-1,-1,-3
12362255766,-9,0,-9,17,4,-4,-5,-5
12362255766,1,-21,-2,18,-11,-8,-4,-3
12362263301,-9,-2,2,-37,-10,-4,-3,-4
12362263301,-4,-20,-19,-26,0,3,0,-2
12362272258,8,6,8,45,10,-2,-1,1
12362272258,-5,7,-8,-20,6,2,2,2
12362278379,-3,-4,3,8,-12,-8,-6,-4
12362278379,2,-5,-2,-1,-6,3,-2,-1
12362294811,6,4,8,-14,-7,-15,-1,4
12362294811,2,3,-6,7,-3,19,5,-3
12362300630,3,4,7,1,14,5,-1,1
12362300630,1,4,2,14,7,16,7,-2
12362315833,-14,-7,-3,-24,-14,-47,-12,-4
12362315833,-7,-13,-5,20,-4,34,-9,-6
12362323363,9,7,2,-5,3,-3,11,4
12362323363,-1,-2,-4,5,10,5,-16,-3
12362332275,2,-1,-3,-19,-21,11,3,0
12362332275,-2,12,8,-3,-17,-18,6,-4
12362338408,5,-1,-6,-7,19,-4,1,1
12362338408,-10,-10,-7,-19,-15,2,4,-2
12362354715,6,2,-11,38,14,-37,-15,0
12362354715,-4,-7,-6,2,8,27,-1,-4
12362360823,-9,-2,10,26,0,20,10,0
12362360823,5,-3,-4,-23,-11,-23,-3,0
12362375712,-2,0,5,-9,11,-3,3,-1
12362375712,5,9,0,11,20,-1,-2,4
12362383404,-2,-1,-1,-1,-1,-4,0,0
12362383404,2,1,-5,-11,-12,23,1,2
12362392216,-3,-9,-2,-11,-6,9,-1,-2
12362392216,-7,-15,-8,4,12,-12,4,-4
12362398380,-5,-3,1,2,0,-5,-5,-3
12362398380,10,25,7,17,9,-14,9,2
12362414759,-4,-16,-9,-23,-17,8,-27,1
12362414759,2,3,1,-13,-10,-12,13,3
12362420815,-4,0,-5,-2,12,16,10,2
12362420815,4,4,4,-9,-37,-22,-8,-4
12362435847,15,22,1,66,52,20,14,6
12362435847,-7,-2,2,-28,-16,-21,-26,-6
12362443371,2,-2,4,-15,-7,-7,-1,0
12362443371,-2,-8,-2,-8,-16,-4,-3,0
12362452245,5,13,10,43,25,20,9,1
12362452245,-7,-16,-1,20,5,-10,-6,-6
12362465809,-8,-7,-6,-20,-11,-1,0,-4
12362465809,-2,-6,3,23,15,1,-5,0
12362474705,-4,-1,11,-29,-35,-11,-11,-6
12362474705,7,2,4,6,10,9,17,7
12362480739,0,-5,1,5,1,-6,-10,-3
12362480739,-8,-7,-17,-6,6,-10,-3,-6
12362495698,3,-4,-3,-22,-15,15,-3,-4
12362495698,14,22,0,-7,-8,-21,-3,5
12362503219,-3,-6,-4,4,-1,24,6,-2
12362503219,1,2,8,10,13,1,-1,4
12362512300,-15,-16,-13,-22,-14,-1,17,-6
12362512300,-4,2,0,-2,-5,-11,-5,0
12362525799,4,-1,-1,4,-5,-16,9,0
12362525799,9,1,0,8,9,15,-21,6
12362534660,3,-3,9,-15,-5,4,9,2
12362534660,1,-2,-6,-4,-1,1,-8,-3
12362540786,-8,-9,-11,6,-5,-15,-7,-4
12362540786,-5,-6,4,6,9,6,12,-3
12362555759,-5,3,-3,-12,-5,0,-5,-1
12362555759,-1,6,13,5,1,0,-1,-2
12362563317,-2,1,-19,0,-5,-5,-9,-4
12362563317,-1,-16,-6,-12,1,0,4,-1
12362572232,9,7,-8,-15,-5,2,0,2
12362572232,3,4,5,13,-3,-5,-3,-2
12362585727,-7,7,12,-1,-1,0,-5,-1
12362585727,-3,-4,-21,0,2,0,-1,-2
12362594682,-9,-9,8,-6,-11,-6,0,-2
12362594682,0,-4,0,-34,-11,0,-2,0
12362600802,6,5,-24,-6,6,-4,-4,-2
12362600802,-11,3,10,3,-14,-8,2,3
12362615758,-18,-16,-6,9,14,6,4,-7
12362615758,-1,-10,-8,24,12,5,-1,-3
12362623348,13,-25,-2,-41,-15,1,0,5
12362623348,-6,24,10,45,20,-3,0,0
12362632230,15,19,-12,-27,-9,1,0,-2
12362632230,1,-13,8,7,0,-1,-3,1
12362645804,-28,-77,-28,21,6,-2,-2,-7
12362645804,6,-7,2,-61,-20,-3,-1,-1
12362654735,-9,52,17,47,7,0,-2,0
12362654735,-1,-14,9,-3,-3,6,6,4
12362660686,1,37,7,2,6,-1,-4,-1
12362660686,14,40,25,10,-7,-11,-1,-2
12362675727,1,-24,-32,-29,-2,14,1,-1
12362675727,-14,-30,-19,8,5,-7,-3,-6
12362683382,3,7,28,13,6,12,1,-2
12362683382,9,22,-20,-7,-10,-7,-5,2
12362698361,16,11,17,-6,-5,-18,-5,0
12362698361,-6,-1,-32,3,11,16,5,3
12362705825,6,20,11,-4,-13,-10,-3,1
12362705825,-3,-28,-1,18,23,16,27,-4
12362721428,-7,-11,8,-19,-21,-22,-54,1
12362721428,-2,4,-1,-15,-13,13,51,-1
12362722071,-6,-9,9,21,17,8,-36,1
12362722071,2,2,-2,-1,6,25,15,3
12362735794,-4,-31,-5,18,13,-3,4,1
12362735794,-1,13,3,-11,-4,-10,-20,-7
12362743301,9,24,-3,-8,-4,-14,3,-1
12362743301,-5,-22,-6,0,-11,-14,-6,-3
12362758239,-14,-11,-7,-25,2,0,-4,-4
12362758239,5,7,1,-2,-6,-7,-13,-1
12362765789,-8,3,10,5,-16,-6,9,-3
12362765789,-7,-16,-12,1,3,-3,-17,-3
12362781487,6,-4,7,14,-2,2,18,1
12362781487,6,7,-4,-8,-4,-1,-15,1
12362782155,-3,-7,-8,-31,-8,1,1,0
12362782155,-4,-5,8,25,6,0,0,-1
12362795829,-6,-1,2,4,-5,4,-1,-5
12362795829,-7,6,4,-29,-1,-4,6,0
12362803362,9,7,-8,-2,-11,-11,-12,2
12362803362,-14,-27,-2,-20,15,8,-5,-10
12362818355,4,0,8,31,8,9,23,4
12362818355,-6,-2,3,-32,-12,-17,-15,-2
12362825822,2,8,-4,70,35,25,16,4
12362825822,2,0,-2,-29,-28,-13,-7,-2
12362841459,1,1,-18,-23,11,-4,2,0
12362841459,-7,-8,7,44,11,7,-3,-3
12362842138,0,2,7,-28,-31,-8,-1,-1
12362842138,2,2,-4,9,11,-6,-7,-2
12362855803,-8,-7,-16,-4,15,8,4,-5
12362855803,1,4,-4,5,-9,-8,-6,-2
12362863294,3,2,0,-22,3,-5,2,-1
12362863294,-1,-5,-4,12,-1,3,2,3
12362878307,-8,-11,8,-21,-24,-9,-7,-5
12362878307,-4,1,3,31,4,-1,-1,-1
12362885792,5,-1,-1,-5,5,-3,6,0
12362885792,3,5,-1,-10,-6,8,6,-1
12362901504,7,6,1,-2,-3,-1,-7,4
12362901504,0,6,-5,-3,3,7,-3,0
12362902152,-14,-3,9,5,1,-4,-3,-2
12362902152,11,-4,-12,-5,-4,-17,9,4
12362915832,1,0,-1,-4,-9,12,-10,-3
12362915832,8,7,0,3,4,-5,-6,1
12362923361,-5,-1,-5,-3,-4,-4,0,-1
12362923361,-7,4,4,0,2,-4,-8,-5
12362938272,-1,1,2,6,-3,-6,3,-2
12362938272,-3,-2,1,-14,1,-1,5,0
12362945813,6,1,-3,7,3,6,-2,0
12362945813,-7,0,-8,0,0,-1,-6,-2
12362961349,-7,-3,0,-4,-5,-6,0,-2
12362961349,-1,-6,-8,-3,-3,1,-1,-2
12362962253,-2,-7,5,0,0,-2,3,-1
12362962253,2,2,12,-4,-1,3,3,1
12362975791,3,7,4,-5,0,1,7,0
12362975791,-1,2,5,8,3,3,2,-1
12362983312,-12,-1,8,4,-3,-3,-3,-5
12362983312,26,-3,-13,-12,-6,-2,-2,4
12362998204,-3,5,0,3,-3,2,0,4
12362998204,-14,-8,1,-5,3,-2,-1,-3
12363005745,4,2,24,22,1,-2,0,-1
12363005745,-13,-1,-25,-34,-10,0,-7,-6
12363021335,-2,-18,-1,29,12,0,3,-1
12363021335,0,1,-24,-53,-23,-7,-4,-1
12363022111,12,48,31,6,17,15,10,6
12363022111,-12,-39,-25,34,15,0,-4,-6
12363035682,10,-11,31,-10,-23,-9,-7,-3
12363035682,-14,-1,16,-16,-43,-42,-9,-3
12363043211,-15,-42,-37,-15,45,33,0,-3
12363043211,16,116,35,12,16,21,4,4
12363058119,-26,-109,-40,-27,-21,-8,-2,-5
12363058119,26,22,59,31,12,6,5,5
12363065612,-26,-2,-27,-36,-27,-76,-21,-12
12363065612,-14,-76,-37,18,-3,40,2,-2
12363081322,4,27,9,4,29,11,7,0
12363081322,5,112,11,2,-5,4,-2,-2
12363082069,4,-54,-28,8,4,-4,-1,1
12363082069,-14,-1,14,13,16,-11,2,-1
12363095656,-3,-11,-5,0,-21,-2,-5,-2
12363095656,13,-26,-20,-6,13,10,9,6
12363103139,21,32,1,-17,-16,13,-2,2
12363103139,-4,-13,3,-12,-28,-22,-10,-6
12363118139,7,27,2,2,1,-20,2,0
12363118139,-31,-32,-18,5,24,25,2,-6
12363125669,1,6,4,5,-5,-3,-7,-1
12363125669,2,-1,10,-7,-28,-25,10,-2
12363141309,13,26,12,4,31,23,-5,1
12363141309,-5,-18,-14,-6,-35,-32,4,-2
12363142135,2,-3,7,-12,-7,28,-13,-2
12363142135,12,12,13,31,42,-15,16,6
12363155644,5,33,-6,-16,-6,15,0,3
12363155644,-2,-34,-7,52,35,-1,0,-6
12363163243,3,-4,2,-7,-29,-41,-11,0
12363163243,1,3,4,-36,-11,28,-3,4
12363178103,-4,13,3,4,-7,-21,-4,-1
12363178103,6,-14,1,-28,1,40,8,0
12363186355,-6,-2,-2,20,-6,-22,5,-2
12363186355,-8,-9,4,3,6,0,-6,-4
12363201384,-1,-1,-6,1,-3,-15,5,-2
12363201384,3,-3,-7,-26,-21,10,-2,-1
12363202183,2,12,2,24,16,-3,3,1
12363202183,-8,-8,-3,-4,-3,-16,-10,-5
12363215746,-8,-2,4,8,-1,25,22,0
12363215746,13,0,-19,-12,12,-17,-12,3
12363223275,-3,-4,3,-18,-28,24,16,0
12363223275,-3,-3,-9,-22,11,-9,-7,-1
12363238208,-2,1,-1,-23,-26,0,1,0
12363238208,-4,-7,8,38,31,3,-6,2
12363246460,3,11,-8,22,9,6,4,0
12363246460,-6,-13,1,-4,-5,5,2,-2
12363261356,-2,-2,3,17,-4,-12,-10,-3
12363261356,0,1,-2,-23,-13,-6,-5,-2
12363262200,13,6,-5,-15,6,4,0,7
12363262200,2,4,-3,-21,-23,-14,-8,-1
12363275643,-10,0,-8,33,14,8,-3,-5
12363275643,-8,-11,1,-2,-7,-5,-4,-6
12363283182,-6,-6,5,-3,8,13,9,-3
12363283182,6,11,4,8,-4,-7,-13,-2
12363298326,1,9,-1,-15,2,2,3,4
12363298326,1,-7,-1,10,5,3,14,2
12363306478,-14,-19,-1,-8,-9,-2,-28,-8
12363306478,2,7,6,7,2,2,1,3
12363321380,-4,-7,-5,-8,2,-6,-11,-6
12363321380,3,13,10,8,-2,-2,-1,2
12363322176,9,5,-8,-1,-2,1,8,4
12363322176,-11,-1,4,-4,-6,0,-1,-1
12363335728,4,-7,0,-4,1,-1,-1,-1
12363335728,-1,-4,1,17,1,-6,-12,-2
12363343298,0,7,18,-16,2,0,3,-1
12363343298,4,-8,-10,7,-1,3,2,-1
12363358238,-3,-7,-10,-5,-2,-7,0,-1
12363358238,9,6,-6,-6,-8,-3,-3,-1
12363366441,-1,-2,0,-11,-2,0,1,2
12363366441,2,7,15,23,5,-4,-7,-1
12363381446,4,6,0,-1,3,9,13,4
12363381446,-17,-12,-9,-4,-6,-6,-3,-6
12363382151,9,-3,3,2,-3,-2,-1,-3
12363382151,-18,9,6,-7,-3,-4,0,-1
12363395804,3,-7,-17,1,4,1,-7,-5
12363395804,1,11,7,-13,2,3,3,1
12363403188,-9,-5,-1,5,-6,-1,3,-2
12363403188,15,3,6,15,-1,0,3,2
12363418299,5,0,-19,-22,3,-5,-7,-3
12363418299,7,8,-2,12,3,0,-2,0
12363426483,16,3,-1,-15,-5,-1,2,3
12363426483,-41,-17,-20,-3,-10,-4,-4,-7
12363440799,-15,9,22,-11,-5,-3,-2,-2
12363440799,20,3,-1,18,-4,1,2,8
12363448980,-23,-42,-14,-8,-2,-6,-6,-10
12363448980,-5,-5,5,23,4,1,0,-1
12363455626,18,2,-4,-38,4,3,4,3
12363455626,-9,-8,1,-11,-11,-4,-3,0
12363463303,5,38,43,28,12,6,6,3
12363463303,12,-10,-52,-2,8,4,3,0
12363478244,-3,68,55,5,-11,-9,-7,1
12363478244,2,-64,-38,36,14,5,1,-2
12363486386,-3,26,4,-30,-9,-8,-1,-1
12363486386,-9,0,5,-7,-8,5,-2,-5
12363500728,7,32,-38,0,21,10,5,4
12363500728,5,-3,1,-24,-12,-2,0,1
12363508983,-4,0,-6,17,0,-13,-8,-6
12363508983,1,-13,25,-9,-2,15,4,3
12363515802,-10,-27,13,-17,-30,-25,-7,-1
12363515802,7,13,13,27,13,15,4,-4
12363523256,-19,-22,-12,29,38,14,13,-3
12363523256,20,20,14,2,19,12,35,8
12363538305,-14,-25,-13,2,-24,-13,-43,-6
12363538305,-7,15,-6,-24,-13,11,41,-1
12363546504,7,7,-5,-7,-17,-27,-11,3
12363546504,-1,1,-7,-18,-12,62,-9,-4
12363560724,1,-2,-11,26,17,-9,22,6
12363560724,-4,10,11,-18,16,-41,-26,-2
12363568972,-5,-13,-3,11,-11,15,1,-3
12363568972,0,-12,-2,-28,-34,-46,-20,-6
12363583904,0,-18,0,21,14,27,3,-4
12363583904,7,21,12,4,6,0,6,5
12363584609,0,-5,9,22,4,3,-10,-1
12363584609,2,3,-20,-55,7,-54,-15,-1
12363598158,1,-8,2,3,-3,33,2,-4
12363598158,-7,1,-5,-20,-6,-12,-2,-4
12363606477,2,1,-11,34,7,-1,-3,0
12363606477,11,14,1,11,-22,-5,-2,4
12363620758,-4,-17,-1,3,0,-21,3,-1
12363620758,-8,-4,3,-43,-14,12,-3,-4
12363628977,1,-5,-7,32,6,9,-2,-1
12363628977,0,3,13,21,-6,-8,1,-1
12363643879,8,13,-20,-20,18,-2,4,3
12363643879,-17,-9,-1,12,17,6,-12,-9
12363644739,-7,-11,-16,-50,-8,6,8,0
12363644739,6,3,12,46,9,3,1,-1
12363658246,2,2,19,27,-9,-10,-6,0
12363658246,-4,-10,-15,4,-24,-8,-8,-3
12363666366,-1,4,17,-3,-15,-4,3,-3
12363666366,-2,1,-22,-23,28,10,0,-1
12363680804,-10,-21,-7,-19,-11,5,1,-5
12363680804,2,9,8,1,1,-5,-4,0
12363688983,-2,4,5,-14,-14,-11,-5,1
12363688983,-10,-15,-16,2,3,6,1,-5
12363703990,7,4,4,14,3,-5,1,1
12363703990,-2,2,1,7,1,1,-4,-2
12363704642,6,3,-9,-8,0,-8,2,3
12363704642,-2,-9,5,-9,-6,7,-3,1
12363718236,-3,-2,-1,7,4,-2,-3,0
12363718236,-3,-3,-6,-3,-9,-2,-6,-2
12363726437,-2,5,-8,-13,0,-1,-2,-5
12363726437,0,5,8,6,-1,-7,-2,-1
12363740730,-1,2,-1,-1,-4,2,6,0
12363740730,2,0,0,1,-5,-7,-10,-4
12363748944,-1,7,4,-4,2,13,12,2
12363748944,4,-8,-5,-8,-3,-3,-2,3
12363763979,-7,-7,-2,6,0,-5,-6,-3
12363763979,3,2,4,1,-2,1,0,1
12363764634,-11,-3,-9,-7,-1,-4,-6,-4
12363764634,11,1,4,1,-1,1,0,-2
12363778286,-4,-5,-3,-2,-5,-3,-1,2
12363778286,-2,-14,2,2,2,1,5,1
12363786429,8,8,4,-5,-3,1,-3,1
12363786429,0,4,4,-5,-5,-2,3,-1
12363800793,12,-5,-8,-2,1,-5,-4,-3
12363800793,-26,8,-8,10,-4,1,-2,-3
12363808953,-5,-16,-16,-1,-1,-1,-5,-3
12363808953,-10,1,9,2,4,2,5,-4
12363823931,12,7,15,-2,-3,-2,1,1
12363823931,8,16,14,6,5,-1,-2,0
12363824634,9,11,14,7,-4,-4,-5,6
12363824634,-9,-31,-24,-13,0,-2,-5,-1
12363838268,1,43,7,-27,-12,-3,-3,-5
12363838268,-1,-44,-17,23,4,0,-4,-5
12363846485,-16,65,2,-10,6,2,5,-2
12363846485,-8,-77,6,18,-7,-5,-3,-4
12363860782,-6,-17,-19,-28,-3,-2,-3,-1
12363860782,1,42,14,3,1,-1,-1,-2
12363868922,17,8,30,23,-10,-2,-2,0
12363868922,-9,13,-20,-7,15,4,0,1
12363883924,12,17,5,11,-9,-8,-5,-1
12363883924,-1,-68,-43,-25,-4,0,3,-1
12363884620,-13,61,6,-15,-2,6,4,-5
12363884620,4,33,16,11,1,3,-2,-1
12363898279,-21,-37,-1,11,-9,-7,-3,-4
12363898279,10,35,12,-9,-17,-15,-6,3
12363906427,12,-34,-10,-4,23,5,1,4
12363906427,-1,11,-4,-5,-1,2,3,-5
12363920726,-5,14,9,1,2,-7,2,4
12363920726,7,-4,6,21,10,22,10,1
12363928970,-13,-38,-21,-25,-44,-43,-11,0
12363928970,13,21,12,7,9,23,-3,0
12363943926,-23,-34,-11,11,31,-6,25,-4
12363943926,-1,6,7,-3,-5,16,-34,-1
12363944599,10,-12,-11,-5,5,0,-8,-3
12363944599,6,8,-16,-8,-12,11,15,-1
12363958291,1,7,-1,-7,-3,-8,-14,-4
12363958291,-6,3,5,6,2,-2,24,3
12363966478,-8,-18,-11,-12,-14,-27,-32,-9
12363966478,0,5,11,1,-3,-6,6,2
12363980765,0,-11,-1,22,27,28,-8,-2
12363980765,-3,1,6,-3,24,9,9,3
12363988971,-3,-19,-7,-7,-16,-3,1,-2
12363988971,-6,-9,1,-29,-27,-27,-15,-3
12364003907,-2,2,-4,-5,-20,-5,-8,-4
12364003907,-3,3,-6,9,15,-8,-4,-2
12364004582,4,-3,-3,-9,1,-1,13,2
12364004582,2,11,-1,-1,-3,4,-10,3
12364018088,3,5,-5,7,4,4,-1,-1
12364018088,-5,-6,2,-29,-21,-10,0,-1
12364026389,-2,-5,12,38,30,27,12,-3
12364026389,0,3,-8,0,-1,-25,-26,-3
12364040594,-1,-7,10,-3,-4,5,-18,-5
12364040594,5,17,23,53,4,-10,7,4
12364048762,-1,-13,-8,-24,15,1,-3,3
12364048762,-5,-1,-13,-19,-2,14,9,-2
12364063870,-2,-12,-6,22,-8,-11,3,-1
12364063870,0,-10,-9,-30,-9,6,9,2
12364064662,3,0,9,-3,-5,12,10,1
12364064662,-3,-2,2,28,6,-15,-4,0
12364078148,-8,-3,-8,-12,-5,1,-4,-1
12364078148,3,0,26,24,-3,-5,5,-1
12364086418,-2,3,-14,-34,-5,0,-1,1
12364086418,-12,-24,-12,-3,4,-1,1,-4
12364100582,6,9,-14,1,2,3,5,2
12364100582,-15,2,-9,-13,-6,-3,-10,-5
12364109617,5,-6,5,5,-3,-3,-5,-2
12364109617,5,4,8,-4,0,6,4,3
12364123313,-8,-5,1,7,1,2,6,-2
12364123313,3,-2,-12,-17,-7,-14,-4,-1
12364132142,1,1,1,14,4,14,3,2
12364132142,-1,5,-1,4,7,2,6,-1
12364138209,4,2,-4,-6,-8,-5,-11,0
12364138209,1,-4,-6,-14,-1,2,2,-3
12364147162,-5,-13,-8,9,-2,-6,2,-2
12364147162,7,2,8,2,-1,-3,-5,0
12364160780,-6,2,9,-8,-3,-1,3,0
12364160780,10,6,-7,-2,1,-1,-4,0
12364169632,-2,4,7,9,0,1,1,4
12364169632,-9,-8,-10,-14,-8,-6,-2,-2
12364183319,-7,-10,3,-6,-6,-4,-1,-3
12364183319,-9,2,1,0,-1,6,3,-4
12364192141,23,2,-11,8,5,-1,-5,-3
12364192141,0,9,12,8,0,-5,-1,1
12364198105,9,-3,-12,-4,-2,1,-2,0
12364198105,-10,-14,-14,-18,-3,2,-4,-3
12364207119,-14,5,1,5,-2,4,8,-3
12364207119,0,4,27,11,-5,-6,-2,-1
12364220704,4,-7,-30,-7,3,0,3,1
12364220704,-6,17,18,13,0,-1,-3,-2
12364229614,15,-22,-18,-39,6,4,0,5
12364229614,-22,-12,1,7,-4,-8,-1,-7
12364243197,5,37,5,-11,-9,-5,-1,-1
12364243197,6,-6,-12,4,4,4,-2,-3
12364252169,-6,24,20,25,-1,-3,0,2
12364252169,-9,-9,-36,-20,-6,-9,-6,-3
12364258164,8,-49,17,1,-4,2,4,5
12364258164,-1,88,-11,-14,-10,-9,-7,1
12364267149,-11,-11,2,-1,-6,-4,-7,-7
12364267149,9,24,26,-8,-17,-3,-1,4
12364280827,-10,-9,-20,10,20,8,6,0
12364280827,3,-35,-19,-17,1,5,4,0
12364289638,-8,-4,-1,2,8,4,0,-2
12364289638,6,18,1,-18,-10,-1,-1,0
12364303126,2,25,18,9,-1,2,-1,-1
12364303126,-8,-72,-19,-11,-15,-14,-6,-4
12364312129,-4,-28,-7,-10,-10,-5,-3,-3
12364312129,21,55,1,32,24,2,0,4
12364318317,-17,-3,4,-18,1,-7,1,-2
12364318317,2,18,14,1,-1,11,12,1
12364327125,-8,-7,-3,20,7,-2,-4,1
12364327125,7,-38,-9,-35,9,23,5,0
12364340806,5,9,5,45,1,-13,11,3
12364340806,0,-2,-4,-16,-14,4,-5,2
12364349645,-10,-4,5,7,16,-6,-20,-2
12364349645,-1,-10,-10,5,30,24,14,-2
12364363239,4,3,5,-3,-10,10,-28,6
12364363239,-3,-9,12,13,6,-7,10,-2
12364372140,11,14,-3,-17,-20,-3,-3,-1
12364372140,-9,-8,-1,1,-8,-5,-2,-3
12364378186,-3,-1,-1,-4,-9,-16,-7,-7
12364378186,-6,-14,0,4,12,-8,-2,-4
12364387136,8,5,2,3,3,11,-5,2
12364387136,-6,-8,-5,-2,-20,-12,-14,-6
12364400733,-11,-18,-8,-13,11,-5,4,-6
12364400733,4,4,-5,-6,-23,-15,-8,0
12364409654,-2,13,1,-3,6,0,6,-4
12364409654,-5,-21,-6,4,-1,1,7,3
12364423163,4,3,1,1,-3,3,6,-1
12364423163,2,18,4,-1,6,-1,-4,1
12364432127,2,5,-8,-18,-9,-2,-2,-1
12364432127,2,-7,-4,17,23,12,14,3
12364438248,4,1,5,-8,-24,-3,0,-2
12364438248,-5,-2,6,4,23,2,-10,-5
12364447145,5,8,7,49,11,7,13,6
12364447145,-3,0,-7,-2,-8,-12,-4,-1
12364460724,-1,3,-15,-26,-8,1,3,-2
12364460724,11,10,7,-15,-11,-8,-6,5
12364469673,-6,-10,1,10,3,1,10,-2
12364469673,-2,0,7,-5,-7,-8,-9,-2
12364483236,-5,-7,6,16,9,6,3,-5
12364483236,2,-4,-4,-10,-10,0,-3,2
12364492135,-3,-5,0,-5,-8,-9,-6,-4
12364492135,-3,3,8,11,-5,-6,-2,-2
12364498208,-2,1,3,-19,-4,-4,-2,-2
12364498208,-5,-8,-4,6,5,5,0,0
12364507150,0,1,1,-8,-5,-2,5,0
12364507150,-1,-7,2,6,-3,-8,-7,-1
12364520725,0,4,-6,-18,-2,1,-3,0
12364520725,-2,-10,-17,7,4,3,-1,-4
12364529658,0,7,1,-15,-2,-3,-3,-2
12364529658,-8,-6,-9,0,-1,-6,1,-2
12364543260,6,4,1,4,8,14,6,3
12364543260,1,-5,6,10,0,2,3,-3
12364552146,2,-12,-4,-6,-6,-3,0,-1
12364552146,2,1,1,-12,-6,-3,1,3
12364567070,-8,-12,5,8,-2,-8,-12,-1
12364567070,-5,-5,-2,6,10,2,1,-2
12364568735,6,10,-4,-4,-4,-2,-5,-3
12364568735,-14,-5,-9,-5,0,-5,2,-1
12364580735,15,10,3,4,2,5,6,1
12364580735,-16,8,15,3,-4,1,2,1
12364589647,3,2,-2,-19,-7,-1,-1,-2
12364589647,-5,4,-3,24,1,1,-3,-1
12364603179,-14,-3,0,0,-4,-4,-3,-4
12364603179,3,-8,-4,5,0,-4,-2,-2
12364612078,8,3,-8,1,3,4,5,4
12364612078,19,19,20,-15,-4,-3,-4,2
12364626920,-15,-13,-13,22,2,1,0,-7
12364626920,2,10,6,-13,-6,1,1,-2
12364628566,-9,-30,-29,-1,0,-3,0,2
12364628566,-13,-4,3,-11,-3,0,-5,-2
12364640762,1,-42,-19,11,-2,-5,-5,-1
12364640762,-18,16,-2,-24,-9,-1,-2,-3
12364649632,7,-19,25,47,16,3,7,1
12364649632,16,18,7,-1,-10,-3,-1,0
12364663193,2,12,-1,-23,4,0,2,4
12364663193,7,-20,1,44,2,1,-2,1
12364672132,-13,5,2,-52,-12,-8,-8,-4
12364672132,-5,-7,-19,15,3,3,-1,-2
12364687114,1,18,7,2,10,11,5,1
12364687114,13,8,5,-1,4,-1,1,2
12364688720,-10,8,10,5,-6,-7,-5,-2
12364688720,-10,-6,-7,-11,0,0,-4,-3
12364700703,3,5,-9,-13,-9,-7,-2,-4
12364700703,4,-12,-10,-9,6,-6,-13,1
12364709633,-19,-5,-5,7,-15,-29,-2,-4
12364709633,2,-3,-7,-17,2,22,14,-4
12364723303,1,10,5,10,12,8,-8,1
12364723303,6,11,6,14,3,7,2,3
12364732104,3,-2,-18,-21,-14,-30,-3,0
12364732104,2,0,10,4,0,7,4,4
12364747010,0,10,4,-1,8,4,-5,-3
12364747010,0,1,5,-11,-20,6,7,1
12364748702,-6,-2,-3,9,23,10,1,0
12364748702,5,-12,1,6,10,2,5,1
12364760745,5,4,4,-2,-33,-17,5,5
12364760745,0,-6,9,12,32,6,-8,-4
12364769639,8,13,-5,-19,-28,14,4,1
12364769639,-1,-8,-8,-17,-1,-4,-3,0
12364783240,3,-4,10,10,10,-6,7,3
12364783240,-4,0,-7,4,-13,-11,-14,-3
12364792119,-8,-6,9,6,9,10,7,-3
12364792119,5,5,1,-1,-16,-23,-8,-2
12364807056,-15,-20,0,21,1,17,-4,-7
12364807056,0,0,-20,-42,3,12,13,2
12364808579,-2,-2,6,14,9,8,1,-4
12364808579,4,-4,6,-2,1,-9,-14,-1
12364820626,0,-3,-7,24,4,-13,3,2
12364820626,-4,2,10,-6,-12,-2,-3,-2
12364829630,-1,-5,-27,-26,-16,-2,-9,-3
12364829630,0,-6,-2,-4,2,-2,-2,-8
12364843205,-4,3,9,-3,-2,-1,-2,0
12364843205,-1,-10,-12,29,19,4,6,0
12364852112,0,-2,3,-36,-11,2,2,0
12364852112,-9,1,8,31,-5,-1,-3,-2
12364867034,6,-3,-5,-11,4,1,-3,1
12364867034,-4,-7,0,-1,-4,-6,0,-2
12364868582,-2,12,10,2,3,3,-1,0
12364868582,1,1,-9,-1,5,5,4,2
12364880729,13,6,-1,-22,-3,3,-1,1
12364880729,-8,-3,3,15,-15,-16,-5,-3
12364889684,-5,-9,5,-25,-19,-15,-16,-8
12364889684,-1,5,-20,33,20,8,2,2
12364903222,-1,3,-7,-25,-8,-7,-2,-2
12364903222,-5,0,-1,-5,5,5,4,-3
12364912154,2,6,11,26,8,1,-1,-1
12364912154,3,-6,-3,-30,-12,-6,-2,-1
12364927080,-4,-3,11,-1,-7,-8,-7,-3
12364927080,9,3,-7,8,-8,-2,3,2
12364928629,-10,-8,-14,-11,11,12,5,0
12364928629,-2,-2,11,-14,-9,-7,-6,-1
12364940721,2,-7,-20,-3,-8,-5,-2,0
12364940721,-7,-4,-3,-20,0,-1,-3,-2
12364949631,8,1,6,45,21,6,2,1
12364949631,0,4,-2,-7,0,4,-1,2
12364963240,-12,-6,-18,-22,-5,-5,-3,-6
12364963240,-7,-6,0,-1,-16,-8,-6,-3
12364972077,6,0,-7,4,-2,0,-1,2
12364972077,7,12,0,11,4,-1,5,1
12364987076,-3,-3,2,-1,4,0,2,1
12364987076,-1,1,0,-17,-4,-2,-1,-1
12364988573,-12,3,-5,-14,-14,-5,-5,-5
12364988573,4,1,14,16,1,-2,-3,-1
12365000617,2,4,-1,-1,-4,-1,0,2
12365000617,5,-6,-1,-6,-17,-3,1,0
12365009571,-6,-12,-6,25,11,-1,-1,-4
12365009571,-6,-7,-20,-25,6,5,-2,-3
12365023171,-1,8,4,18,6,2,2,0
12365023171,0,-2,10,-31,-10,-4,-4,-3
12365032134,6,9,-2,17,12,9,6,4
12365032134,-4,-3,-9,-10,14,3,1,-1
12365046920,7,6,30,-71,-33,-4,-3,-1
12365046920,-9,-8,-50,69,46,8,2,-2
12365048533,1,0,31,20,-10,-7,-3,-1
12365048533,0,-9,13,-10,1,-1,0,-1
12365060690,1,-7,-27,-12,-6,-4,-3,0
12365060690,0,1,14,-16,-9,-5,-2,-2
12365069635,0,2,3,-20,-12,-7,-5,-2
12365069635,-8,-5,-2,-5,-7,-3,-1,-2
12365083140,-5,0,13,34,15,0,0,0
12365083140,8,5,-3,-9,-3,-9,-6,1
12365092117,-3,-5,-15,7,7,20,17,-1
12365092117,-1,1,5,-9,-19,-12,-1,-1
12365107073,3,0,2,15,7,14,5,1
12365107073,-4,2,-10,-2,0,-1,0,-1
12365108689,6,5,5,-10,1,0,-1,3
12365108689,-2,4,-5,-13,-2,-7,-2,-3
12365120721,-9,-1,-9,32,8,4,2,-1
12365120721,0,-8,2,9,7,1,1,0
12365129608,2,7,3,-25,-20,-11,-8,-2
12365129608,-6,-6,-10,11,12,5,2,-3
12365143234,-1,-2,-7,-21,-12,-12,-8,-3
12365143234,1,10,3,-24,-16,-5,-5,-2
12365152089,-2,-6,-9,3,1,0,0,-1
12365152089,-2,-16,0,29,19,7,3,0
12365167095,-1,-15,7,-4,7,5,1,-5
12365167095,-1,-5,4,8,9,2,3,-1
12365168629,2,-5,1,10,0,-3,-3,2
12365168629,0,3,-1,-2,-14,-7,-7,-1
12365180667,0,-1,0,3,-4,-13,-4,1
12365180667,-1,-1,5,-9,-7,11,6,-4
12365189615,-3,-2,-1,-7,-2,-6,-8,0
12365189615,-2,1,2,25,3,1,2,2
12365203197,5,7,-7,-6,11,-1,-3,3
12365203197,-5,-4,-6,-8,-9,5,2,-2
12365212127,-1,-7,-1,-14,-2,-2,-5,-3
12365212127,1,0,-3,8,-8,1,7,0
12365234527,3,12,2,-5,-3,-13,-8,-1
12365234527,1,3,2,22,5,2,1,2
12365236071,-5,-6,3,2,-3,-3,-1,-2
12365236071,-8,6,-6,-17,-9,-2,-8,-5
12365240736,-1,4,-8,1,-1,0,1,-3
12365240736,5,-4,2,-5,4,-2,1,4
12365249583,0,1,-2,10,0,-2,-4,2
12365249583,1,-2,-7,-19,-16,-13,-9,-2
12365263684,-5,-2,2,14,5,11,3,-4
12365263684,2,7,3,2,1,-3,-3,0
12365272020,-1,-5,-5,2,5,2,7,-1
12365272020,4,-1,5,-4,-8,0,-1,-1
12365287104,-1,-1,0,-1,8,2,1,1
12365287104,0,-1,4,-4,-3,-4,-3,0
12365288722,3,-5,-8,-6,-2,-2,-3,-4
12365288722,2,1,1,-1,-5,1,-3,0
12365300615,-4,-6,-1,-4,-8,-18,-13,-7
12365300615,-5,-3,-2,-6,-3,20,15,0
12365309630,2,-5,-5,1,2,-5,-10,0
12365309630,2,3,0,-5,5,1,-2,1
12365323884,-4,-2,4,4,-2,-3,-1,0
12365323884,-4,-2,-5,-4,-4,-16,-6,-5
12365330631,-2,7,-3,-2,-2,5,3,-1
12365330631,-1,-2,1,-1,-6,-4,0,-1
12365346422,3,0,0,2,0,7,3,0
12365346422,1,0,3,2,0,-2,-2,0
12365353107,-1,1,-4,1,4,0,1,-1
12365353107,-2,-3,-2,-1,6,1,0,-1
12365360688,3,-1,-1,5,-9,-7,2,0
12365360688,-11,-8,1,-7,-12,-2,-6,-2
12365369607,9,2,-4,2,4,-3,0,0
12365369607,-7,3,5,1,2,-3,-2,-2
12365383944,-3,-8,-7,-2,4,8,2,-2
12365383944,9,1,-1,1,14,5,4,4
12365390680,0,3,1,-4,-3,-6,-2,-1
12365390680,3,2,-2,-3,-6,-2,-1,1
12365406276,-2,5,1,3,0,4,4,1
12365406276,-10,-1,0,-5,-4,-12,-8,-5
12365413152,-2,1,0,1,1,10,5,-2
12365413152,7,-2,-2,-3,1,2,1,1
12365420666,-1,-1,-3,-1,-4,-1,0,0
12365420666,-1,-2,-4,-7,-8,-8,-6,-1
12365429591,-7,-4,1,5,3,0,2,-2
12365429591,-5,-2,-1,-3,-5,-16,1,-2
12365451921,-1,-4,2,1,1,23,2,-5
12365451921,1,-1,-4,0,9,1,2,1
12365453535,-2,-3,6,-2,-1,2,0,0
12365453535,2,-1,-4,1,0,-2,0,1
12365466327,-2,-3,-5,-5,-6,-10,-2,0
12365466327,4,2,0,-1,-9,-5,-2,-3
12365473193,-5,2,0,-3,-2,-6,-4,-2
12365473193,-6,-8,0,2,-1,3,-1,-4
12365489565,2,5,3,2,9,6,1,1
12365489565,-1,0,-5,2,0,6,1,-3
12365491085,1,-7,-5,-4,-2,-9,-3,4
12365491085,-4,-2,3,5,-5,4,-1,-1
12365503931,-2,-4,-8,-7,0,-4,-3,-2
12365503931,0,1,-1,-2,-4,-9,-7,-1
12365510635,3,9,2,-5,-9,1,-1,-3
12365510635,-7,-5,-3,0,7,5,3,2
12365526207,6,-6,2,8,1,1,-1,2
12365526207,0,-1,-2,-2,2,0,0,0
12365533042,-3,-2,-4,-1,-1,-3,-1,-2
12365533042,3,2,1,-2,-3,0,-4,-2
12365549506,-4,1,2,-8,-7,-10,-3,-2
12365549506,0,1,0,5,-4,-3,-2,-2
12365551126,-1,-2,1,-1,0,-1,1,-1
12365551126,1,-2,0,0,2,0,-2,0
12365563809,-1,-1,0,1,-2,2,3,0
12365563809,-1,-4,-3,-3,-5,-5,-2,-1
12365570558,-2,-4,-6,-10,-6,-7,-5,-3
12365570558,0,-4,-3,1,4,8,0,-3
12365586382,1,0,1,1,-2,-7,-3,0
12365586382,-1,1,8,4,5,-1,2,-1
12365593175,6,1,-2,5,9,17,6,0
12365593175,-1,-3,-3,-7,-2,-7,-3,0
12365609538,0,0,-3,-4,-12,3,-2,0
12365609538,-6,-2,-2,-3,1,-7,-2,-1
12365611029,-3,-6,-2,0,-2,-5,-4,-3
12365611029,5,3,3,-1,0,10,5,0
12365623864,-5,-2,0,-1,0,-8,-7,-1
12365623864,-3,-6,-1,1,-4,3,4,-1
12365638178,-1,1,-2,-4,-7,-8,-3,0
12365638178,1,1,-2,-2,-8,-10,-8,-1
12365646379,-2,1,-1,1,4,8,3,-2
12365646379,-3,-4,-2,0,2,2,0,0
12365653116,1,2,0,0,3,-3,-1,0
12365653116,-1,0,-2,1,4,10,4,-1
12365669524,-2,-1,0,-5,-5,-7,-5,-2
12365669524,-5,-1,-2,-5,-3,0,-5,-3
12365671099,3,-1,-2,1,-6,-9,-5,0
12365671099,1,-1,0,0,0,-10,-7,-1
12365683879,-5,-4,-1,0,1,8,4,1
12365683879,-3,-3,-2,-3,-3,5,3,-2
12365690664,-6,-1,0,0,0,-2,-7,0
12365690664,-2,-4,-4,-1,-2,-5,-1,-3
12365706368,2,0,0,2,4,-8,-6,1
12365706368,3,5,0,-1,-7,-5,-2,1
12365713265,-2,3,0,-2,-4,3,5,0
12365713265,-7,-6,1,2,4,3,5,1
12365729533,2,-5,-1,-4,0,0,-5,0
12365729533,3,1,-4,-1,-3,0,1,0
12365731068,2,3,2,-3,-2,3,-1,-1
12365731068,-6,0,2,2,13,6,11,0
12365743905,-5,-4,1,-1,-7,-5,0,-2
12365743905,2,1,-1,-5,-1,-13,-7,1
12365750717,-7,-6,-3,-2,0,11,5,-1
12365750717,5,0,-1,1,-1,3,-1,-1
12365766398,-1,4,-6,-5,-4,-8,-5,-3
12365766398,-4,-4,-2,1,0,5,-1,-1
12365773269,-2,-2,-2,0,-1,-9,0,1
12365773269,-1,5,1,0,-3,-6,-4,-1
12365789531,7,2,3,4,4,1,1,2
12365789531,1,3,-2,-5,-3,-2,-1,-2
12365791035,-2,0,1,-2,-1,1,-2,-2
12365791035,-1,-2,-2,3,-4,-4,-2,0
12365803834,1,2,-3,-4,0,-3,-3,-3
12365803834,-3,-3,2,4,1,6,-1,-2
12365810693,-4,1,0,0,2,-1,-2,1
12365810693,1,1,0,-7,-5,3,-2,-3
12365826354,3,-2,-6,-5,-10,-9,0,-1
12365826354,-5,1,0,1,4,13,5,-1
12365833240,-3,-10,-1,2,4,-2,-1,-3
12365833240,-9,4,2,-2,-5,-3,-2,-1
12365849516,-2,-4,-2,0,7,3,3,0
12365849516,7,1,-3,-4,-6,-6,1,4
12365851025,3,1,-2,1,-3,-3,-1,1
12365851025,1,2,-1,-1,-2,-8,-8,-1
12365863927,-4,1,4,2,-1,1,1,-3
12365863927,-4,-5,-3,-1,1,-7,-6,-2
12365870667,-1,-1,-1,2,1,9,4,0
12365870667,3,-4,-4,-2,-4,-4,-2,-1
12365886370,-4,-3,-2,-2,-1,-1,0,-2
12365886370,1,0,2,3,0,0,0,0
12365893215,-3,0,-2,-4,-2,-11,-4,-5
12365893215,0,-1,-4,1,4,8,1,2
12365909585,-4,-8,0,1,2,-2,-1,1
12365909585,0,-2,0,-1,-2,-2,-3,-2
12365911054,0,-1,-3,-1,0,-1,-2,0
12365911054,1,1,4,1,-1,-2,2,0
12365923880,-9,-1,-1,-1,-4,1,2,-1
12365923880,-1,-6,-3,-5,0,-6,-4,-3
12365930643,6,-1,-2,-4,-6,-1,-4,1
12365930643,1,-2,-3,-4,-6,0,1,0
12365946368,-6,-4,0,1,3,0,-4,-2
12365946368,-6,1,1,2,0,3,1,-2
12365953123,-1,1,2,5,4,-5,-3,-3
12365953123,-3,-3,-2,-5,-5,-3,1,-2
12365969495,5,4,-1,-1,-2,1,1,-1
12365969495,9,2,2,2,9,-1,0,3
12365971063,-1,0,-3,-4,-7,1,5,4
12365971063,-6,-4,-1,-4,-3,-4,-5,-1
12365983081,-3,-4,-4,1,2,-4,-5,-3
12365983081,-2,-5,-3,-6,0,6,0,-3
12365992118,-5,-5,-3,-2,-4,-1,-2,-1
12365992118,7,1,-4,-3,-6,-11,-6,-1
12366006335,-3,-5,-3,-1,-2,0,2,-2
12366006335,1,-1,-3,-4,-10,-4,-2,-3
12366013212,1,5,2,3,6,3,0,-1
12366013212,-7,-2,-1,0,1,3,2,-1
12366037004,2,1,1,0,-1,-5,-3,0
12366037004,-1,3,-4,-2,-7,-9,-5,-3
12366038644,-4,-3,-1,-3,1,3,3,0
12366038644,-4,-4,0,3,2,1,-3,-3
12366043096,0,1,0,-1,-2,-1,1,2
12366043096,-2,-4,-1,0,-2,-2,1,1
12366051989,1,2,0,-3,-7,-1,-1,-2
12366051989,-2,-2,-2,-4,-1,-3,-7,-2
12366066338,-7,-1,1,0,1,-3,0,-5
12366066338,6,2,0,2,3,6,1,1
12366073154,3,0,0,0,3,2,-3,-2
12366073154,-5,-2,-4,-3,-2,2,0,-2
12366089460,0,0,-1,-1,-4,-6,0,1
12366089460,-5,-2,0,-2,-4,-7,-6,0
12366091136,-3,0,-3,0,-1,5,1,-2
12366091136,9,4,0,3,0,-5,0,0
12366103058,5,5,-1,-2,-2,-1,1,2
12366103058,2,-6,2,2,5,2,-4,2
12366112164,-7,-8,-3,-3,-1,-6,-2,-4
12366112164,-7,-3,-2,-1,-1,1,0,0
12366126350,2,2,-1,-8,-5,0,-1,-2
12366126350,-4,-1,-2,-1,-2,-4,1,-1
12366133131,1,-1,0,1,1,-5,-2,-2
12366133131,1,3,2,2,2,4,0,-2
12366149495,-9,-7,-2,1,0,-3,-4,-1
12366149495,4,0,0,-4,-9,11,3,0
12366151157,6,5,-2,-1,5,-1,-1,2
12366151157,-2,-5,-3,-1,1,7,1,-1
12366163133,0,0,1,-2,-1,-7,-3,0
12366163133,-8,-3,-3,1,4,-2,0,-3
12366172095,-6,-6,-1,-3,-11,-6,-3,-4
12366172095,2,1,2,2,1,-1,0,-2
12366186398,0,2,1,-1,-1,4,-1,1
12366186398,-2,-7,-1,0,-3,-2,-2,-4
12366193042,1,0,-2,-5,-3,-1,-2,2
12366193042,2,-2,0,2,4,-3,1,-2
12366209550,4,4,1,0,0,6,1,1
12366209550,-2,2,1,0,-2,-7,-5,-2
12366211017,-13,-7,0,0,-1,-4,0,-1
12366211017,0,-8,-2,-9,-13,-14,-8,-4
12366223185,3,0,-3,-1,3,14,8,-3
12366223185,4,6,1,3,7,5,5,0
12366232005,-7,-4,-4,0,-3,-6,-9,-4
12366232005,-3,0,0,-2,-3,-2,-2,2
12366246409,2,2,0,1,-5,-14,-6,0
12366246409,-2,-7,-1,-3,2,6,-4,0
12366253050,2,0,2,1,0,2,1,0
12366253050,1,-4,-2,-1,-2,-3,0,1
12366268885,5,-5,0,1,-1,1,-5,-2
12366268885,-3,6,-1,-1,-5,-7,5,-1
12366275595,-2,-5,-1,0,0,-3,-5,1
12366275595,-6,-2,-1,0,7,9,2,-3
12366283199,1,2,-1,-4,-3,-2,-1,-2
12366283199,9,5,-1,-3,-8,-7,-2,0
12366292141,-6,-5,-1,0,2,-2,0,-1
12366292141,5,-1,-3,-1,1,8,1,1
12366306391,-8,-6,-1,-1,-1,-4,-2,-1
12366306391,-4,0,-2,0,1,0,-1,-4
12366313175,5,5,0,-2,-6,-1,1,1
12366313175,-2,0,-2,-2,-1,-5,-2,-2
12366328903,0,1,1,5,2,5,0,0
12366328903,-5,-2,-4,-3,-5,-3,-4,-2
12366335569,1,0,-1,-8,0,3,0,-2
12366335569,-2,1,0,-1,-2,-3,-3,-2
