timestamp,emg1,emg2,emg3,emg4,emg5,emg6,emg7,emg8
7240276501,-22,73,18,-21,-15,-4,0,3
7240276501,11,-49,-22,-32,-6,0,1,6
7240277320,-13,-38,-8,7,-4,-7,-8,-4
7240277320,8,81,20,5,-3,-6,-6,-5
7240278132,23,-50,25,18,18,21,14,7
7240278132,-20,-49,-19,-1,0,1,-3,-2
7240280920,43,23,-14,-22,-17,-10,-16,-4
7240280920,-40,43,10,13,7,2,12,3
7240289537,-29,-68,-21,-13,-12,-19,-22,-22
7240289537,20,127,13,5,-1,9,46,26
7240296726,15,52,2,10,11,1,3,6
7240296726,6,3,-11,-9,-2,-3,1,-5
7240304637,-2,-34,7,35,4,9,4,-1
7240304637,-8,-57,-4,-42,0,0,-2,-2
7240318173,-10,69,-8,2,-9,-7,-9,-4
7240318173,17,37,5,-22,-22,-10,-1,8
7240329595,-20,29,-20,-1,12,4,-7,-5
7240329595,21,-8,17,32,-10,-11,-13,-4
7240333167,0,-61,19,29,30,13,8,6
7240333167,-12,-128,-21,-24,10,11,-4,-3
7240356696,22,-47,-11,-26,-14,-10,-1,7
7240356696,-17,0,12,43,-15,-19,-26,-9
7240358139,-15,-43,-5,-40,-8,9,13,-6
7240358139,-6,-85,-3,14,14,-2,-1,-4
7240396315,1,-15,-4,-1,-5,0,-8,1
7240396315,2,-17,0,14,-1,2,5,-6
7240397126,10,2,-5,7,0,3,1,0
7240397126,-3,9,5,15,3,-10,-2,-8
7240397977,-10,1,2,3,15,18,5,-2
7240397977,7,6,1,12,18,1,4,5
7240400502,-9,10,-20,7,-3,-4,-4,-6
7240400502,-6,-13,4,-25,6,14,8,-6
7240409346,14,9,-8,-5,-4,-14,-4,6
7240409346,-11,-11,-2,-22,-12,3,3,-7
7240415478,8,11,12,41,0,-5,1,2
7240415478,-7,-1,-40,-65,-17,-10,-12,-3
7240424386,-17,-15,3,3,-15,-2,0,-8
7240424386,7,33,7,-14,11,5,-2,6
7240438114,-11,-11,0,-27,-9,1,-2,-2
7240438114,9,6,5,36,15,4,9,6
7240446953,0,21,8,-15,-10,-8,-4,-4
7240446953,1,14,1,1,-8,5,-1,2
7240452970,0,9,7,6,7,-5,-7,2
7240452970,-4,-2,13,11,-9,-1,-8,-3
7240476138,4,19,-8,-16,6,2,17,0
7240476138,4,2,-1,4,-4,-11,-13,1
7240477082,-13,-12,2,-3,0,1,-3,-4
7240477082,5,5,9,11,2,-5,5,3
7240484356,10,-2,-5,15,1,10,2,2
7240484356,-11,-5,0,-21,-11,-6,-12,-6
7240498057,7,0,-2,-2,4,3,8,0
7240498057,10,10,-4,14,8,10,24,9
7240506897,-18,-15,0,-10,-4,-5,-24,-9
7240506897,-3,-3,4,12,-1,-20,-16,-2
7240513056,-2,-13,7,-9,-2,16,8,-5
7240513056,-5,-22,-4,-10,-9,-7,-33,-1
7240529364,1,-4,-5,1,-1,-2,7,1
7240529364,4,3,-3,0,-2,3,6,-1
7240535527,1,4,-4,-1,0,-15,-5,-1
7240535527,4,-1,4,-2,-1,4,-13,-5
7240544321,-9,-2,0,1,-4,-2,0,1
7240544321,-8,-9,-4,14,7,6,14,3
7240557976,0,-7,4,-15,-7,-8,-8,-4
7240557976,2,4,-5,4,-4,-4,-6,-2
7240566916,7,6,-2,6,6,0,8,-1
7240566916,-9,5,-3,-1,1,3,6,-3
7240573037,7,11,-3,-3,-6,-3,-2,2
7240573037,-1,6,-3,-10,1,-6,4,0
7240589386,-9,1,2,-2,-3,-6,-12,-2
7240589386,-3,-4,-6,2,-5,0,-3,-1
7240595503,3,-10,-2,1,4,3,16,1
7240595503,6,13,3,0,-1,-1,2,3
7240604330,1,-6,-7,1,-4,0,-4,-2
7240604330,0,-2,-9,-3,-1,2,0,-2
7240617986,-9,-2,3,3,-5,-9,-6,3
7240617986,-10,-5,7,-9,-8,-2,2,-4
7240626835,0,-2,-2,5,2,3,6,-4
7240626835,11,11,-2,-5,10,7,5,1
7240632999,-5,15,13,6,-4,2,1,0
7240632999,-9,-52,-41,-22,-4,-7,-4,-5
7240649358,14,39,2,-15,-4,-2,-5,4
7240649358,-10,-21,-6,-4,-9,-11,-7,-5
7240655454,-2,-16,-5,-11,-1,0,-4,-1
7240655454,2,14,7,0,-5,1,-1,-3
7240664307,1,1,20,25,4,-2,5,7
7240664307,20,45,-9,-20,-6,-4,-2,-3
7240678009,-28,9,9,1,2,1,-7,-9
7240678009,6,23,2,9,-7,-4,-1,2
7240686909,-4,-103,-37,-13,11,6,1,-1
7240686909,0,43,12,10,-6,-3,-6,-6
7240701078,5,8,-14,-19,-12,1,0,4
7240701078,-30,9,-2,12,27,0,-4,-8
7240708017,-4,30,-12,-13,-11,-8,-6,-8
7240708017,7,3,18,0,-2,-2,-9,2
7240715376,2,-82,-21,-4,-1,0,-5,-5
7240715376,-10,-48,0,5,9,3,4,0
7240724353,11,35,10,4,-3,0,8,3
7240724353,-11,-13,6,-4,10,0,12,0
7240738021,4,4,-7,-10,-7,5,-1,2
7240738021,7,3,12,-4,-17,-10,-5,1
7240746940,-2,-5,-3,11,7,2,-1,-3
7240746940,-12,-9,-1,4,-1,3,-1,-5
7240760455,-3,14,-5,-17,2,-4,-4,1
7240760455,-1,2,3,13,-6,3,3,-1
7240769364,9,2,5,14,17,-5,-9,-3
7240769364,3,-12,-3,-5,-12,5,0,3
7240775453,1,-12,-8,1,-1,-4,13,-2
7240775453,4,-10,-12,-18,-13,-9,20,2
7240784368,2,17,19,-10,-15,-14,-12,-8
7240784368,3,-12,-15,-16,-6,7,7,9
7240797959,-5,-5,2,1,24,15,7,-4
7240797959,2,10,1,33,11,14,6,2
7240806914,-6,-4,12,-6,9,5,2,-1
7240806914,5,-2,-18,-7,3,-10,-3,-1
7240821158,-12,-18,-26,-22,-12,-4,-8,-4
7240821158,-1,10,15,29,4,-9,-6,-4
7240827881,-11,-29,-18,-32,-14,0,-2,-8
7240827881,-5,-13,-1,6,-8,-7,-3,1
7240835416,24,32,-17,22,5,-7,-3,4
7240835416,-11,17,-6,-12,-13,-1,-7,-4
7240844362,-2,1,8,24,3,-4,-1,-5
7240844362,-2,4,-15,15,20,-1,-3,-2
7240857965,-16,-10,10,1,-10,-5,-9,-9
7240857965,7,-1,-9,-11,24,24,12,4
7240866939,-11,10,-1,-16,-10,0,-2,1
7240866939,13,0,2,-3,-9,-4,-3,4
7240881157,18,42,17,13,8,-2,-7,4
7240881157,-16,-22,14,-10,-7,-4,0,-7
7240887967,2,-5,-19,-1,-10,-6,-3,1
7240887967,0,4,13,-2,1,3,4,1
7240895464,8,12,-3,9,0,0,8,3
7240895464,-8,-3,-16,-26,-16,-13,-40,-7
7240904347,1,13,18,7,6,11,36,7
7240904347,0,2,-7,1,-8,-17,-8,-5
7240917990,-7,-8,17,2,9,24,6,3
7240917990,13,20,-3,4,-7,-7,-4,-1
7240926815,-16,-32,-10,-7,0,-6,-18,-3
7240926815,3,-18,4,2,5,9,1,2
7240941125,5,0,9,9,-1,-14,-5,2
7240941125,-4,2,-4,-13,-9,-3,-5,-5
7240947873,-2,-6,-7,2,-1,6,9,2
7240947873,11,-11,2,0,-4,-2,4,5
7240955438,-2,-4,-17,-12,-7,-9,-30,-3
7240955438,8,17,14,10,2,-5,20,-2
7240964338,11,13,-5,0,-3,-7,-19,2
7240964338,-27,-26,-7,-3,-4,4,-1,-8
7240977994,12,-6,6,2,-4,-3,6,-2
7240977994,11,-12,4,0,5,4,5,6
7240986819,8,-20,-3,0,-1,-4,-6,-1
7240986819,6,-16,-3,-1,-1,4,4,-2
7241001014,-27,18,0,1,0,-3,-11,-4
7241001014,-27,1,-1,3,0,-4,8,2
7241007982,3,4,-1,1,-1,0,5,3
7241007982,-1,8,0,0,-4,-8,-24,-5
7241015485,19,17,6,1,2,22,30,3
7241015485,35,4,2,4,1,-1,0,9
7241030401,-21,20,9,-1,0,5,3,-1
7241030401,-20,9,2,4,-1,4,-3,-7
7241037981,-6,-51,2,8,1,-17,-3,-9
7241037981,-11,-6,-1,21,-14,6,-8,3
7241046797,20,66,16,1,17,4,18,9
7241046797,34,60,-3,-2,15,12,13,11
7241061067,-29,17,18,54,-24,-1,-5,-5
7241061067,-16,44,-4,-48,-1,-10,-11,-8
7241067937,-10,-105,18,64,5,8,2,-3
7241067937,-15,-54,-22,29,20,-6,-1,-4
7241075437,-11,51,-19,-36,-21,-9,-5,-6
7241075437,-25,-81,10,-26,17,13,12,-14
7241090457,21,104,-53,9,-36,-26,-37,2
7241090457,20,45,28,-41,0,-8,1,7
7241097956,12,-5,-11,-11,15,22,10,6
7241097956,-16,8,47,48,-5,8,9,-1
7241106917,-9,-67,-68,-42,36,-16,8,-18
7241106917,16,20,8,-1,-15,24,12,20
7241121184,9,4,-2,32,-4,12,-10,-2
7241121184,-12,61,-43,-92,-23,-49,6,2
7241127875,26,86,97,10,35,-18,12,11
7241127875,-9,1,-39,-14,-39,79,6,1
7241135441,-10,18,11,-25,-10,-52,9,-9
7241135441,21,-13,52,52,23,37,54,14
7241150386,26,1,-52,-63,6,24,-20,0
7241150386,-39,-17,-16,7,-10,-18,-42,-21
7241157976,-9,-36,0,-32,1,-74,6,-1
7241157976,30,19,11,48,-19,52,-54,-8
7241166912,-9,-15,4,2,13,-13,12,1
7241166912,1,-14,13,5,-8,-8,6,-13
7241181158,-6,-28,-14,15,14,23,-6,2
7241181158,14,-32,-2,35,13,-52,-8,6
7241188004,-9,-20,6,-29,-14,18,-2,2
7241188004,-12,-23,-7,-12,0,-35,-8,-8
7241196801,-3,2,18,26,3,22,12,-1
7241196801,2,-15,-38,-14,-5,0,-3,2
7241210458,-26,-44,-3,-40,-15,22,25,-3
7241210458,13,-7,36,23,-6,-14,11,1
7241217973,-3,-46,-17,-30,16,-3,-12,-6
7241217973,-3,-10,-14,-12,11,16,9,0
7241226807,-1,-7,-1,47,-18,-9,-18,0
7241226807,-1,-6,-5,-51,-5,-33,-5,-1
7241241076,6,19,8,-4,4,19,0,5
7241241076,-10,3,-17,15,0,-10,-14,-6
7241247808,3,11,6,18,-10,6,-2,-1
7241247808,-6,10,17,-28,5,-3,-3,0
7241255364,-2,18,-12,8,-2,2,1,1
7241255364,10,6,-8,5,1,1,-2,1
7241278620,-7,5,-5,-5,-8,-15,-2,-3
7241278620,-2,1,2,20,6,-11,4,-2
7241279324,0,-4,-11,-17,-10,9,4,-3
7241279324,-7,-6,-5,-26,-9,-36,-16,-7
7241286937,-1,-6,13,19,-4,23,-20,-1
7241286937,-8,-16,-2,-2,13,1,4,1
7241300988,8,-2,3,-6,-8,2,1,2
7241300988,-4,-6,1,5,4,-10,-14,-1
7241309345,-8,-8,-3,-12,-9,1,5,-1
7241309345,-2,-7,-7,7,-5,0,-14,-2
7241315387,9,5,2,0,1,2,4,3
7241315387,-4,-7,-12,-15,1,5,2,-1
7241330488,-9,-12,4,2,-7,-9,2,-3
7241330488,0,-2,-5,4,4,-15,-17,-2
7241339319,1,-5,-3,6,3,13,10,4
7241339319,-2,-1,3,-4,-4,-5,-1,-4
7241347097,-9,-6,-1,-5,-6,-2,3,-3
7241347097,9,-4,-6,7,-2,-12,6,1
7241360428,-5,3,1,-6,-1,3,-8,-6
7241360428,-10,3,1,-4,-3,8,0,-1
7241372244,-9,-20,6,-29,-14,18,-2,2
7241372244,-12,-23,-7,-12,0,-35,-8,-8
7241376778,-3,2,18,26,3,22,12,-1
7241376778,2,-15,-38,-14,-5,0,-3,2
7241378433,-26,-44,-3,-40,-15,22,25,-3
7241378433,13,-7,36,23,-6,-14,11,1
7241385706,1,-5,-3,6,3,13,10,4
7241385706,-2,-1,3,-4,-4,-5,-1,-4
7241387268,-9,-6,-1,-5,-6,-2,3,-3
7241387268,9,-4,-6,7,-2,-12,6,1
7241401419,-5,3,1,-6,-1,3,-8,-6
7241401419,-10,3,1,-4,-3,8,0,-1
7241402960,-17,-2,1,-2,-2,-7,8,-2
7241402960,-11,-4,2,5,3,-5,12,-1
7241408184,3,-4,-3,-1,-4,5,-10,2
7241408184,8,2,-3,-4,-1,3,5,0
7241409752,1,1,-3,4,-1,-1,-11,-3
7241409752,-3,-3,1,4,-1,-8,0,-8
7241410545,-3,-5,-4,-3,1,-2,24,8
7241410545,14,4,-3,-5,-5,4,0,-5
7241414303,-9,14,8,0,5,-7,-3,5
7241414303,-9,-23,-6,-1,0,8,4,-3
7241420286,4,23,12,9,-2,-9,-16,-7
7241420286,18,-1,4,2,-1,18,6,2
7241429333,-14,0,-7,0,-5,-7,-5,-5
7241429333,-9,1,-7,-5,-4,0,-6,-3
7241443569,6,-8,4,-11,4,0,-9,-2
7241443569,-2,20,-10,-14,-3,-7,-1,5
7241450314,0,-6,5,5,-1,0,-1,-5
7241450314,-7,2,2,19,3,1,-4,-1
7241466764,0,-2,4,-3,-7,-9,-8,-1
7241466764,9,16,12,33,16,1,1,3
7241468322,9,-40,-18,-21,-8,-1,-2,1
7241468322,-20,28,8,16,-1,8,1,-4
7241480480,6,27,15,-9,2,-8,-2,-3
7241480480,-14,0,-15,-25,-6,-7,-6,-4
7241489342,10,15,16,6,-4,-3,0,2
7241489342,15,4,-12,-14,-11,-9,-4,-1
7241503533,-1,11,9,5,0,11,-7,-2
7241503533,1,18,34,60,-3,-15,8,-1
7241510408,18,-21,-61,-54,2,46,1,1
7241510408,-6,33,21,-41,-7,9,8,7
7241526795,-18,-17,-27,17,1,-45,-8,-10
7241526795,20,8,-1,-7,-12,15,-12,-4
7241528302,-22,45,-10,-17,3,-36,-12,2
7241528302,24,-59,-1,-3,-6,33,10,-8
7241540492,-32,-31,-6,-6,-8,-7,2,-1
7241540492,4,8,-1,-22,-2,-18,-14,-4
7241555480,-1,-50,13,31,-5,5,14,0
7241555480,3,26,-7,5,7,-6,-8,0
7241563646,5,-4,11,18,-2,1,18,5
7241563646,-15,-38,-20,-8,9,11,-9,-5
7241570299,26,58,8,1,-6,-12,-11,3
7241570299,-29,-54,-12,-6,4,-13,-2,-4
7241586716,5,21,5,15,2,24,-2,-3
7241586716,-4,-14,-10,-14,6,10,12,7
7241588277,-3,5,5,-10,-6,-6,-5,-3
7241588277,-3,6,-5,18,3,-5,-6,-3
7241600485,14,-13,-2,-4,-11,-15,-5,-2
7241600485,-24,4,-8,-14,2,-5,0,-3
7241610888,0,-6,6,14,2,1,-2,-2
7241610888,14,-3,-5,3,-3,3,2,6
7241623672,1,-3,-7,-23,-1,-6,1,-3
7241623672,-6,-2,10,13,8,1,0,2
7241638055,-16,-2,19,32,-1,-1,6,-3
7241638055,2,1,-22,-35,-11,-29,-1,2
7241646806,13,13,-4,-11,-3,10,-6,-7
7241646806,-5,-5,1,13,-16,-5,-5,0
7241648325,-17,-17,-3,4,6,-12,-9,-4
7241648325,2,9,12,0,7,3,8,3
7241660408,-1,-4,-7,-9,3,16,-12,2
7241660408,1,-15,3,-14,1,-3,-5,-8
7241669336,15,0,-8,5,-16,-13,-6,1
7241669336,-2,5,11,16,2,1,-2,-1
7241683627,-18,3,-13,-19,2,10,-6,3
7241683627,-4,-10,-11,-12,-7,1,25,0
7241690417,16,4,10,21,2,0,-1,-2
7241690417,-23,-11,-4,-12,-4,-2,-1,-6
7241706774,-3,-8,7,-10,-15,-19,2,-3
7241706774,-11,-1,-1,-12,5,7,-8,-6
7241708298,8,3,-2,-17,4,2,10,8
7241708298,6,14,4,21,0,-17,-4,-6
7241720484,3,0,-4,10,10,21,12,8
7241720484,-1,-24,-8,-10,-15,-15,-3,0
7241729318,0,2,-7,-9,-1,3,2,-5
7241729318,5,-1,-6,5,4,7,-1,3
7241745063,6,4,-1,-4,1,-4,-1,1
7241745063,9,11,-1,-1,-1,0,-1,2
7241750475,-6,6,3,3,6,-2,0,-4
7241750475,-2,-25,-3,10,11,24,-7,4
7241766677,-1,-7,1,2,-2,-4,16,-2
7241766677,-2,-8,-13,-8,-7,5,-9,-2
7241768309,-10,-4,2,5,4,-5,-5,-2
7241768309,3,-2,0,2,-1,-3,7,-2
7241780431,-6,-10,-3,-2,-3,-12,-39,-7
7241780431,-12,3,5,8,6,11,3,0
7241789315,-8,-15,-3,-10,-2,2,-2,-2
7241789315,9,7,0,-3,-7,-18,-23,-1
7241803523,-8,-8,-1,2,7,12,23,2
7241803523,8,-2,2,2,-7,-23,-8,-3
7241810421,-3,-14,-5,-5,-3,6,7,3
7241810421,1,3,1,-2,-5,-5,0,-5
7241826730,-8,-12,-1,1,-5,4,-30,-1
7241826730,-1,-8,-2,-1,-4,-2,1,0
7241828275,-4,-14,3,-1,-2,3,1,-3
7241828275,-5,-6,-2,0,0,-6,-2,0
7241840469,4,-1,1,-1,-6,-27,8,-4
7241840469,-3,5,1,-1,4,38,-7,-1
7241864300,1,14,-1,-2,-1,0,-6,0
7241864300,4,7,0,-1,0,4,1,0
7241864946,10,-7,-3,2,2,-11,1,5
7241864946,4,11,0,1,1,-4,-4,0
7241870375,-11,8,4,2,0,3,13,-3
7241870375,-13,-3,-4,-3,-2,12,1,1
7241886835,18,4,-4,0,-1,2,3,0
7241886835,1,19,11,-3,-11,-12,1,2
7241888281,-10,17,1,22,10,4,-5,-3
7241888281,-10,-1,-25,-35,2,1,6,-4
7241900479,7,20,0,20,-3,2,2,7
7241900479,-1,16,22,-18,1,-7,0,-3
7241909351,-4,-27,16,50,0,-3,0,0
7241909351,-7,-20,-2,-67,-2,-1,-5,-7
7241923693,6,44,-31,2,8,2,3,1
7241923693,20,21,20,43,-1,0,4,9
7241930446,-69,-83,-31,-34,-7,-3,-12,-24
7241930446,17,-16,25,77,5,-1,-5,-3
7241946100,18,41,9,-50,5,4,10,9
7241946100,-15,-68,-32,-30,-16,-17,-13,-6
7241952791,35,83,39,1,4,7,8,12
7241952791,-4,-20,-12,20,6,2,-5,-4
7241960396,-6,-2,12,1,-11,-6,-11,-9
7241960396,1,65,-1,11,-2,-4,5,3
7241969393,11,39,7,-33,-18,-10,-13,0
7241969393,13,27,13,16,9,8,8,-7
7241983636,20,3,18,21,0,2,13,26
7241983636,-27,-80,-36,-31,2,5,-5,-5
7241990337,12,-32,-5,29,4,0,4,-2
7241990337,-33,97,-7,-15,-10,-9,-10,-4
7242006017,-9,-34,20,13,-8,-2,-2,-15
7242006017,27,18,-16,-55,-5,-2,5,7
7242012905,-4,20,-1,25,6,-2,-3,-3
7242012905,21,-41,-13,-20,-2,2,4,9
7242020288,-24,-20,7,13,8,11,-3,-3
7242020288,-11,7,17,25,1,-5,-2,-5
7242029311,27,44,13,13,-9,-13,-3,0
7242029311,-4,-30,-16,-55,-2,7,8,5
7242043616,-12,-38,-14,5,-7,-5,-5,-8
7242043616,-1,10,8,18,3,0,3,-6
7242050364,-1,-52,-12,27,3,8,3,3
7242050364,13,-15,1,1,1,0,1,2
7242066112,-19,-5,-10,-11,6,6,4,-8
7242066112,11,-22,-5,1,4,-4,4,-1
7242072896,-2,-2,-6,-19,-9,9,-11,-2
7242072896,0,9,0,19,-7,-6,-1,0
7242080394,-10,2,-4,-21,-9,-4,-5,-5
7242080394,-17,-4,9,6,4,6,6,-4
7242089274,-2,-17,-13,-20,8,2,0,0
7242089274,3,14,7,16,1,1,-2,2
7242103489,15,0,-7,-3,-11,-16,-12,0
7242103489,-9,-3,0,15,-5,-9,-4,-4
7242110268,-5,2,-5,-15,6,-3,1,-1
7242110268,-3,-14,-4,13,-9,0,-3,0
7242126014,-1,5,-2,-7,10,4,4,-3
7242126014,-1,19,6,12,8,7,2,2
7242132932,7,2,0,-12,2,-10,-4,-1
7242132932,0,0,5,4,0,8,1,1
7242149215,-7,1,10,10,-10,-8,-4,-1
7242149215,8,9,-6,13,1,0,3,-2
7242150812,-1,-13,-6,-21,12,16,17,4
7242150812,-12,-9,1,-2,-6,-24,3,-2
7242163655,-5,-7,-4,-3,0,16,-4,-2
7242163655,9,-6,-2,-7,-9,-5,0,2
7242170408,4,12,-4,-9,-10,-10,-6,-3
7242170408,-5,-3,-9,-8,-6,5,-1,-1
7242186084,-2,0,-9,2,0,-5,-4,-2
7242186084,-3,-8,3,0,-1,0,7,1
7242192810,1,1,-1,-9,-5,-1,-6,-1
7242192810,11,18,1,3,-2,-2,-2,-1
7242209274,-10,-9,-1,4,1,-2,-4,-2
7242209274,-3,-9,-11,-7,4,3,-2,1
7242210765,0,1,0,-2,-4,-3,-1,1
7242210765,-6,-2,5,4,2,2,0,-4
7242223622,4,0,-6,-4,0,-1,2,4
7242223622,-5,-5,-6,-4,1,3,-2,-1
7242230436,2,-3,-6,-7,-4,-18,0,-2
7242230436,1,0,8,9,2,14,-3,-2
7242246092,4,5,-2,-6,1,1,2,-1
7242246092,-7,3,-1,-3,-1,-10,-1,-1
7242252886,-4,0,-1,1,-1,6,-4,-2
7242252886,-1,-3,-4,-1,0,-5,-1,-1
7242269234,3,7,2,-1,-6,-4,0,-1
7242269234,-2,-6,-1,-5,-6,-7,-3,-3
7242270780,5,-10,-1,-2,4,4,3,-1
7242270780,-17,-14,0,0,4,1,3,-4
7242282905,-4,-14,1,3,1,1,0,-1
7242282905,-7,-4,0,-3,-3,-12,-9,-7
7242291786,6,2,0,-4,-7,6,-3,2
7242291786,-10,-7,3,2,-1,-1,-2,-1
7242306057,1,2,-7,-5,-3,-2,0,-2
7242306057,7,2,-2,-1,-1,2,-5,-2
7242312769,2,3,1,-2,-4,-6,-6,0
7242312769,0,1,0,0,-1,-5,2,0
7242329199,9,4,-2,-3,-2,0,-2,0
7242329199,-32,2,1,-1,-2,3,8,2
7242330730,-5,-5,-3,2,1,2,1,-3
7242330730,10,7,2,0,6,5,0,1
7242351033,10,-4,-3,-10,-1,-2,1,-1
7242351033,-2,4,2,1,-4,0,-4,0
7242351745,-7,-6,-4,0,-4,-7,-2,-2
7242351745,4,6,7,23,-3,-7,-3,1
7242366755,4,-1,-3,-14,-3,-1,-4,-4
7242366755,5,2,3,1,1,2,1,0
7242372802,-9,5,-11,-10,2,0,-1,-1
7242372802,7,2,6,1,-6,-1,-2,1
7242388563,-8,-1,-9,0,6,-1,1,-4
7242388563,28,4,5,0,-4,-3,-5,4
7242389245,1,10,2,-9,6,-2,-3,-5
7242389245,-15,-12,-8,-6,-9,-4,-5,0
7242411056,-2,-15,0,4,-1,3,1,-5
7242411056,-6,19,5,-8,0,-3,4,2
7242411730,12,-21,-7,10,-3,1,1,-2
7242411730,0,2,1,-2,-3,-4,-7,0
7242426761,7,4,-4,-3,1,-5,6,-4
7242426761,-11,-7,7,25,6,6,-15,-4
7242432961,1,14,-1,-15,-7,-10,-3,-5
7242432961,2,-7,-5,5,4,2,3,3
7242448551,-5,23,15,5,-10,-5,0,1
7242448551,13,10,-6,4,5,7,5,-3
7242449249,-3,-17,-23,-36,3,1,1,3
7242449249,-6,26,6,-15,-6,-4,1,-8
7242471035,16,-11,-2,21,12,4,-1,5
7242471035,-22,-17,0,7,13,9,5,2
7242471729,-5,-23,5,13,-4,-3,-5,-3
7242471729,1,18,9,-2,-5,-5,-3,-1
7242486781,-14,-8,0,-6,-5,-14,-4,-2
7242486781,13,-1,-8,-12,-18,2,-11,-6
7242492936,5,2,7,8,2,-3,1,12
7242492936,3,-9,-4,11,11,1,-4,-9
7242508533,-10,-10,-1,-6,-8,-5,-6,-2
7242508533,-20,-25,-10,-7,-6,-4,-2,-6
7242509239,2,9,-4,-15,4,-2,5,-1
7242509239,7,-6,-2,5,5,9,1,4
7242531034,2,6,-6,-5,-9,-2,-4,-2
7242531034,5,9,6,7,14,-6,5,0
7242531926,-2,5,7,0,-4,8,0,-2
7242531926,-9,-8,8,14,10,-3,1,-3
7242546787,-5,-6,-29,-22,-5,1,3,-4
7242546787,10,11,-8,-2,-5,-5,-2,4
7242552796,-10,-11,15,7,7,10,7,-2
7242552796,-8,-10,-6,-20,-17,-3,-1,-3
7242568562,-1,18,10,39,24,7,0,3
7242568562,-3,-24,-7,-25,-18,-13,-9,-7
7242569221,17,20,-9,5,-13,-17,-9,-2
7242569221,-15,2,2,-3,-2,7,5,2
7242591089,-4,4,10,0,3,6,2,3
7242591089,9,17,-9,-17,2,0,1,3
7242591793,4,-3,2,3,-2,4,1,1
7242591793,-1,9,8,-11,-15,-16,-10,-6
7242606808,-22,-27,-10,-15,2,6,1,-6
7242606808,5,9,10,22,15,2,3,-1
7242612830,-8,-1,2,6,-1,2,-4,-2
7242612830,8,-1,-13,-11,3,-1,0,0
7242628580,0,5,6,16,3,3,3,2
7242628580,-16,-32,0,-19,-15,-12,-9,-8
7242629271,-8,1,4,5,-5,-7,-4,-2
7242629271,-2,-15,-9,-6,0,-1,-4,0
7242651057,7,-3,1,8,4,6,5,5
7242651057,-5,-4,14,4,-1,0,0,-1
7242651762,-9,4,-3,-4,-4,-6,-3,-1
7242651762,23,6,5,14,9,2,6,9
7242666783,-6,10,-10,-21,-13,-8,-7,-5
7242666783,8,18,-1,1,-5,-3,-2,-1
7242672884,-3,0,2,6,6,7,5,6
7242672884,0,6,-2,0,7,-3,-1,-4
7242688234,0,-9,3,3,2,9,-6,0
7242688234,14,13,4,5,3,3,7,5
7242695414,-8,-1,-4,-2,-3,-5,-2,-4
7242695414,-4,-8,-13,-6,0,3,0,-1
7242704240,-5,-5,8,-2,-5,-11,-5,-6
7242704240,-4,-16,-8,-3,-1,-3,-6,-2
7242710293,1,-25,-1,-4,-4,-2,-5,-1
7242710293,2,-22,-1,-3,-4,-3,0,2
7242726790,-8,-5,-5,-8,-2,-2,4,-4
7242726790,11,4,-11,-8,-6,-1,-1,1
7242732891,-10,0,-2,4,7,5,2,-2
7242732891,-1,7,4,1,-3,1,-2,0
7242748572,-3,-19,-5,-5,-6,-15,-2,-1
7242748572,7,-11,2,2,2,13,1,0
7242749266,0,0,4,3,0,-5,-6,2
7242749266,-2,-13,-10,-5,0,-1,0,-3
7242764278,13,2,1,-2,-1,1,-4,0
7242764278,-9,4,2,4,3,-1,23,1
7242770429,0,15,1,4,2,0,-5,-5
7242770429,-22,-3,0,-3,-6,-7,-6,-3
7242786779,3,-2,0,-1,-3,-3,0,-2
7242786779,-11,7,-3,-1,0,-2,-5,-1
7242792947,11,2,-5,-1,-3,-1,-1,1
7242792947,-2,-2,-3,-2,-3,-4,1,-4
7242808489,12,10,1,0,0,3,-4,1
7242808489,17,9,-1,2,1,3,-1,0
7242809312,-19,5,-2,-4,-9,-4,0,-1
7242809312,-10,-3,-4,-3,-4,-2,-8,-6
7242824274,-23,22,-1,3,6,6,4,-3
7242824274,-1,-10,-1,2,-10,-11,-10,-2
7242830463,11,-10,9,4,4,-3,3,-1
7242830463,10,10,-9,2,10,11,7,1
7242846786,-9,-25,14,37,-4,-2,-6,-3
7242846786,-5,5,-1,4,8,-2,1,1
7242852883,7,26,-8,-52,-3,-5,-3,-3
7242852883,11,-49,19,36,-11,-3,-2,4
7242868541,5,63,20,-62,-6,-4,-3,-1
7242868541,-8,-48,-47,-44,5,10,1,1
7242869251,-14,-51,-18,42,-19,-17,-9,-8
7242869251,1,39,7,-48,17,11,4,0
7242884290,-14,-48,4,55,15,6,7,0
7242884290,-18,-26,27,16,-17,-14,-14,-6
7242890393,-11,23,-29,-30,7,6,5,-2
7242890393,-8,10,11,12,-7,-2,-4,1
7242905324,12,0,1,1,2,3,3,3
7242905324,10,44,0,-10,-1,-5,-8,3
7242912919,23,39,11,16,-9,0,-9,-11
7242912919,-6,39,3,8,0,-4,3,-4
7242927910,-10,21,-13,-22,-3,0,-11,0
7242927910,11,-3,-6,-7,-6,-4,-3,4
7242935407,-1,-12,11,3,0,-1,1,2
7242935407,-23,-41,-11,0,2,0,-3,-7
7242944242,-5,-24,-6,0,2,2,7,-3
7242944242,2,-2,0,19,5,-1,0,-2
7242950262,1,-25,1,-14,-10,-2,-3,3
7242950262,7,-23,-18,-9,1,-8,-3,-4
7242965359,2,-10,-7,12,-20,-9,-3,-3
7242965359,-6,-13,13,2,23,25,5,-5
7242972860,16,-1,-12,-11,36,29,23,14
7242972860,5,3,-7,-10,-4,-4,3,0
7242996036,2,3,-3,1,-4,-9,-5,-2
7242996036,-1,2,3,9,-9,-10,-6,-7
7242996705,-3,5,0,20,-10,-5,1,-2
7242996705,-5,1,-15,-25,-13,-7,-4,-4
7243011055,10,3,2,4,-15,-6,-3,0
7243011055,-2,18,-15,-20,5,0,4,0
7243011756,-18,-5,6,9,2,-1,-2,-6
7243011756,9,7,8,10,-9,-6,-5,1
7243025282,-5,-4,-2,-14,-2,8,0,-5
7243025282,4,-3,5,-1,17,11,9,-2
7243032882,-18,7,4,-3,3,-2,-3,-4
7243032882,10,-8,3,12,-1,1,1,4
7243047907,3,7,2,-8,-1,-4,-1,-1
7243047907,6,17,-5,4,-8,-6,0,6
7243055404,-6,-1,12,8,8,3,-2,-8
7243055404,4,18,15,10,-1,-5,-5,-3
7243071085,6,0,-30,-35,1,1,-1,5
7243071085,-3,3,9,7,-7,-8,-1,-1
7243071756,6,10,3,-1,-2,-3,-2,2
7243071756,0,-7,4,11,-6,-2,-5,-3
7243085404,-6,-9,0,5,3,-2,-3,-4
7243085404,-1,5,-2,-11,-11,-9,-2,-3
7243092907,-5,-4,0,5,5,1,2,0
7243092907,1,-2,1,2,7,6,5,3
7243107876,1,-1,-1,-2,-1,-2,-2,-1
7243107876,0,7,-1,-1,-5,-4,-3,-1
7243115253,-4,-13,-2,-9,-8,2,3,-3
7243115253,-2,-4,-14,-11,-4,-1,-3,-2
7243130994,-1,-8,-3,-6,0,-2,1,0
7243130994,-2,-4,-1,11,5,4,2,-3
7243131720,11,1,4,2,-4,-5,-3,1
7243131720,-11,2,-1,-8,1,-3,-2,0
7243145359,-4,-2,-6,-1,-3,3,-6,-7
7243145359,-6,-5,5,4,-2,-2,1,-2
7243152879,5,1,-4,-8,-7,-5,-7,2
7243152879,2,-2,-7,-4,1,2,7,2
7243167818,1,-3,4,3,2,-5,-4,2
7243167818,-3,-8,-3,-2,-3,2,1,-2
7243175384,-1,-6,0,-1,-6,-4,-3,-6
7243175384,2,-5,0,0,-1,-2,1,-1
7243190928,3,-18,0,0,3,-2,-7,6
7243190928,-6,-9,-1,-3,1,0,-1,-2
7243191806,-1,-2,1,1,1,-1,0,-2
7243191806,-5,-2,-1,-2,0,0,-2,-2
7243205269,7,8,2,-1,-4,-1,2,-1
7243205269,-2,1,-3,-1,-2,-2,-2,0
7243212900,-2,-4,-1,-3,-8,-4,-3,-5
7243212900,6,2,-3,1,4,3,0,3
7243227780,-3,6,0,1,1,1,4,-2
7243227780,-12,-6,-3,2,1,1,0,-3
7243235379,-2,3,0,2,4,0,4,1
7243235379,17,5,-2,-4,-3,-1,-3,-1
7243251050,3,7,-3,-2,-2,-2,0,0
7243251050,-10,0,0,-2,-5,-4,-3,0
7243251735,11,-2,-4,-4,-5,-4,-4,2
7243251735,3,6,-2,-2,-1,-1,-3,-1
7243265385,-9,3,3,1,1,2,0,-4
7243265385,0,-3,1,1,3,1,-1,-5
7243272939,-23,-10,-3,0,0,-1,1,-1
7243272939,9,-7,2,4,0,1,0,2
7243287926,11,3,-7,1,0,-3,-1,0
7243287926,-5,3,-4,-29,-17,-5,-6,-4
7243295407,8,13,1,17,10,0,0,-6
7243295407,1,-12,8,2,2,3,6,4
7243311046,-23,10,2,4,3,4,4,2
7243311046,20,-18,13,-1,-7,-2,-2,2
7243311763,-21,34,-1,-3,-5,-5,-3,-5
7243311763,-21,-48,-19,-21,-5,-4,-6,-9
7243325347,3,-17,-16,9,10,-1,0,0
7243325347,6,31,12,8,2,2,2,5
7243332771,0,-17,0,-10,-7,2,-5,-6
7243332771,2,12,10,15,-1,1,2,-2
7243347666,-31,-7,-10,-23,-1,-4,-2,-3
7243347666,11,-4,-9,1,0,1,-2,0
7243355224,12,-1,3,-3,-7,-8,-4,4
7243355224,6,34,-1,-8,-7,-2,-5,-1
7243371086,10,-15,7,12,1,4,4,1
7243371086,-13,1,-7,4,9,2,-2,0
7243371717,-15,-17,-5,-12,-4,-3,-1,-3
7243371717,5,-1,-5,3,-4,-2,0,3
7243385342,7,17,5,4,-2,-6,-5,-6
7243385342,16,-8,-14,-3,5,-7,1,4
7243392850,-16,-20,-1,10,-1,10,13,2
7243392850,-13,-2,1,1,9,-5,-16,-5
7243407864,2,0,11,5,-1,0,-1,-3
7243407864,-10,-10,3,23,-1,-8,-5,-7
7243415340,8,-6,-4,-10,1,-5,-5,4
7243415340,-8,3,-14,-33,-13,1,4,-4
7243431074,2,0,4,10,-1,1,3,0
7243431074,-1,8,-5,-6,10,5,2,-6
7243431644,-1,10,5,12,0,1,6,4
7243431644,-5,-13,-5,4,-3,-2,-1,-1
7243445301,1,-4,-5,-16,-3,3,-7,-6
7243445301,0,2,-1,4,-9,-5,1,0
7243452799,-6,13,7,7,-4,-7,-6,-3
7243452799,-4,-6,-1,-7,0,-3,-1,-7
7243467859,12,15,-23,-4,1,-6,4,9
7243467859,-14,-7,3,-6,-6,-1,-2,-2
7243475303,6,3,4,-3,-11,-4,-4,-1
7243475303,-3,-11,0,-6,11,12,8,1
7243491060,-1,11,15,5,-14,0,-2,-2
7243491060,-2,-6,-6,7,30,10,3,-1
7243491723,10,-4,3,-11,-8,-5,-5,-1
7243491723,-7,-1,14,14,-12,0,-2,-4
7243505403,-10,-11,10,-14,7,7,6,-1
7243505403,1,-3,11,-16,0,-8,-8,-2
7243512761,-6,-6,11,16,9,7,4,1
7243512761,5,4,-8,-8,-4,-4,1,3
7243527874,2,7,-4,-14,-9,-7,-7,-3
7243527874,-3,-7,0,11,-9,3,2,-3
7243535383,8,3,-13,-7,8,3,0,-2
7243535383,2,13,-2,4,1,-2,-1,2
7243550980,-4,-6,-17,-4,-14,-12,-8,-2
7243550980,-7,0,3,-12,-5,2,1,-3
7243551722,-3,12,14,19,27,12,8,0
7243551722,2,-1,7,15,7,-1,2,3
7243565334,3,2,-14,-10,-10,-7,-2,-5
7243565334,8,-6,-9,4,1,-6,-47,7
7243572727,11,22,-12,-11,-9,-1,11,-2
7243572727,-5,9,7,9,4,-16,30,8
7243587856,6,-1,2,2,6,29,-4,4
7243587856,-4,9,-4,-12,-11,1,-12,-4
7243595401,-4,-1,-11,-8,-11,-17,-21,-8
7243595401,24,2,-4,0,0,-4,1,0
7243611057,-14,-27,2,7,5,-11,3,2
7243611057,-10,-17,-9,0,-1,2,15,1
7243611702,4,-33,-1,-4,2,-1,-8,1
7243611702,-19,-8,-2,-4,-8,9,3,-10
7243625359,9,-4,4,-2,1,-8,-7,2
7243625359,-8,4,4,3,3,7,5,-4
7243632893,-1,-12,-7,-8,-9,-9,4,-1
7243632893,17,-11,-10,-6,1,-4,-15,2
7243647829,-3,-2,9,9,4,8,4,-2
7243647829,-24,-15,-3,-3,-7,-10,5,-2
7243655390,11,-14,-6,-5,-2,-1,2,-3
7243655390,-21,2,-6,1,2,3,-8,-3
7243671055,11,-11,1,-2,-2,-2,-2,1
7243671055,5,13,12,3,-13,-4,12,1
7243671699,12,8,-8,17,13,0,-7,-1
7243671699,-13,0,-23,-24,-5,1,-5,-1
7243685370,-44,-5,-4,-4,1,-7,3,-10
7243685370,11,10,-4,-2,-6,-4,-1,2
7243692755,3,8,22,5,-4,3,-3,-2
7243692755,11,11,-8,-1,-3,-2,-5,1
7243707852,8,2,4,10,1,-1,2,1
7243707852,7,4,-6,-13,-3,-3,1,-2
7243715359,-13,-12,-4,-4,-1,4,1,0
7243715359,5,3,10,9,3,-3,-1,1
7243731087,11,10,-13,-8,-2,-1,0,1
7243731087,-2,-15,7,12,-2,2,2,-2
7243731730,-11,32,-8,-15,-2,-5,0,-2
7243731730,-19,-55,21,20,-10,-3,-6,-6
7243745334,-9,4,-11,5,4,2,-4,-7
7243745334,3,5,2,9,7,0,3,1
7243752909,26,14,-41,-46,1,2,3,6
7243752909,-21,6,4,-4,-4,-4,-3,-7
7243767811,13,29,4,2,-10,-6,-5,1
7243767811,15,-34,4,5,-4,-5,2,4
7243775397,-18,5,6,-13,-5,4,4,-3
7243775397,19,122,-4,-5,10,8,-2,4
7243790992,-11,-83,-25,-13,-3,-5,-8,-17
7243790992,-36,29,2,20,-8,-6,-4,-1
7243791689,-1,-40,-8,-36,-9,-8,-6,-5
7243791689,12,13,8,1,6,6,4,3
7243805341,18,4,11,9,-5,-6,-3,9
7243805341,-11,3,-10,6,-1,0,-8,-6
7243812842,-1,-13,-7,31,21,7,-2,-1
7243812842,-40,-6,-10,-14,-13,-7,-7,-8
7243827768,11,18,9,-12,-5,-9,1,2
7243827768,14,24,2,-4,-12,-5,-2,-2
7243835308,-6,-4,12,21,2,1,0,-1
7243835308,20,-48,-1,-5,0,5,6,-1
7243850360,1,5,13,13,9,1,-1,3
7243850360,-13,-11,-7,-20,5,4,4,1
7243858548,-11,-10,3,16,0,-5,-6,-6
7243858548,5,-26,-11,-6,-8,-11,0,2
7243865313,-7,3,-5,-13,-7,6,2,0
7243865313,9,-4,-3,6,6,6,2,-6
7243872919,5,3,-5,-7,0,3,4,1
7243872919,-1,-9,7,26,17,4,4,3
7243887829,-5,6,1,-11,-7,-2,0,0
7243887829,15,-1,-14,-14,-6,-5,-4,-2
7243895232,-10,12,6,19,-4,-2,3,3
7243895232,-17,-27,4,-21,-18,-14,-13,-14
7243910346,-15,-13,16,2,9,13,10,-3
7243910346,13,-3,-27,-16,9,4,5,6
7243918559,-7,-17,9,10,-1,7,-1,-5
7243918559,10,8,-4,-4,6,1,2,3
7243933511,0,6,1,7,-2,-11,-7,-4
7243933511,-13,-1,-1,-10,5,7,2,-6
7243934193,9,11,9,-9,-3,4,4,7
7243934193,13,5,-20,8,-1,-3,-4,1
7243947842,-24,-20,2,-14,0,8,4,-5
7243947842,4,3,-9,5,-2,-7,-3,1
7243955308,-1,-5,-7,5,-11,-7,-1,3
7243955308,16,21,-16,-20,-1,4,0,2
7243970342,-8,-10,-7,-10,-3,-3,-3,-3
7243970342,-3,-1,1,-3,0,-4,-3,0
7243978561,3,11,5,7,-6,-16,-5,-1
7243978561,-5,0,13,6,-3,9,-3,-4
7243985288,9,2,0,1,1,1,3,4
7243985288,-2,5,2,4,5,5,4,0
7243992875,0,-16,-5,-7,-6,-3,-5,-4
7243992875,-9,2,3,5,5,-13,-11,3
7244007768,-2,6,-1,10,9,12,11,-2
7244007768,4,-1,5,-3,-9,-1,-5,2
7244015330,-1,7,2,0,4,-6,4,-3
7244015330,0,-2,-1,-6,-6,-6,-7,-2
7244030336,4,6,-6,3,-3,12,1,-1
7244030336,-3,-10,-2,-7,-6,-10,9,-1
7244038531,-5,0,0,-7,-2,-1,13,2
7244038531,-10,-7,-2,6,3,-3,-2,-5
7244053526,9,12,1,2,-3,-5,-3,1
7244053526,9,-8,4,-2,-2,7,-1,0
7244054215,-26,-3,0,-7,-3,-9,-5,-4
7244054215,1,-14,11,9,0,1,9,3
7244067739,-6,-7,-4,-2,-5,-10,-9,-6
7244067739,6,-9,-1,-5,-1,0,-2,-4
7244083533,4,-3,2,1,-1,3,-5,0
7244083533,-7,-6,-7,-2,-3,-1,-4,-5
7244090359,4,-3,-1,-2,-1,-1,-8,2
7244090359,1,5,2,2,-1,-6,0,1
7244098511,5,-1,-3,-2,-1,3,-5,1
7244098511,10,4,1,-1,-1,4,7,0
7244113535,-3,9,0,1,0,-8,-3,-1
7244113535,-6,-1,1,1,0,-4,0,-3
7244114194,-6,1,-4,-3,-6,0,-6,-1
7244114194,4,0,0,-4,-7,-4,-1,4
7244127854,3,-1,-3,3,9,5,4,2
7244127854,-14,-5,3,7,13,9,5,-2
7244135366,-1,-4,-1,0,2,2,-2,-3
7244135366,9,5,-3,-4,-4,-3,-3,-1
7244150308,11,14,11,3,-10,-9,-4,1
7244150308,-3,-1,-10,-5,-6,-5,-5,-2
7244158526,-31,-6,-3,-3,-5,-2,-3,0
7244158526,1,-2,-3,-1,1,3,2,-1
7244173535,16,14,15,16,2,-1,0,1
7244173535,-3,-1,-22,-20,13,6,2,0
7244174183,8,0,8,14,-6,0,2,-2
7244174183,-6,-3,-5,0,5,1,-2,0
7244187811,-5,-6,-9,-15,-11,-7,-3,-4
7244187811,5,9,57,43,-20,-9,-11,1
7244195312,15,-8,-70,-62,6,4,2,1
7244195312,-11,2,0,31,34,17,12,1
7244210244,1,-4,-1,7,9,0,1,-4
7244210244,24,7,-7,-10,-6,-1,1,7
7244218467,-12,7,21,14,-15,-8,-7,-5
7244218467,1,-8,4,-17,-19,-10,-6,-5
7244233488,-26,-3,2,9,5,2,-1,-3
7244233488,-13,21,-7,1,2,-1,-3,-5
7244234167,19,5,5,0,-2,1,6,5
7244234167,-1,-21,-11,-2,-3,0,-11,-6
7244247833,8,17,3,-7,-3,-3,-2,1
7244247833,3,-8,-5,-6,-8,-7,-6,-1
7244255238,11,4,6,8,8,0,-1,3
7244255238,-3,2,-6,-14,-2,-1,5,3
7244279173,-9,-7,-6,-15,-3,0,-1,-3
7244279173,-4,8,14,26,-1,-2,0,-2
7244280070,-11,-30,-4,-8,-5,-5,-5,-3
7244280070,-3,-14,9,44,0,-4,-1,0
7244293507,11,-1,-17,-38,7,0,0,-3
7244293507,2,-2,-11,-10,3,3,6,2
7244294209,-15,-27,10,13,-2,1,-6,-6
7244294209,5,7,-2,-15,-18,-9,-3,1
7244307808,-22,-4,-5,-1,3,-4,-1,-4
7244307808,0,-11,8,-1,5,4,3,5
7244315309,4,10,-2,2,-10,-3,-5,-1
7244315309,-7,-1,0,-11,4,2,-4,-3
7244331671,11,3,-3,15,1,5,9,4
7244331671,-12,-12,-9,-18,-2,-7,-7,-7
7244338493,3,8,4,7,6,2,1,-1
7244338493,8,9,-7,-12,-5,0,1,-2
7244353512,-9,-8,1,5,-3,-5,-2,1
7244353512,-10,-5,-1,-4,-7,-3,-3,-6
7244354198,6,2,3,3,5,4,3,-1
7244354198,0,4,0,2,-3,-3,-2,-2
7244367838,-4,-12,-6,-6,-1,1,-2,-5
7244367838,3,5,14,34,-4,-3,-1,2
7244375397,7,8,-21,-37,-9,-9,-4,0
7244375397,-15,-14,13,1,-4,5,1,-7
7244390336,9,4,-3,-10,-5,0,0,5
7244390336,-12,-20,3,-16,10,9,5,-2
7244398535,-1,-5,-3,7,-2,-2,-6,-3
7244398535,2,9,-3,-2,-2,-1,3,3
7244413451,-2,-2,0,15,3,-4,-2,-3
7244413451,3,4,-7,-3,8,8,4,1
7244414143,1,9,-5,-10,-5,0,-1,-4
7244414143,-5,-5,8,22,9,3,7,5
7244427801,2,9,-6,-4,-11,-2,-4,1
7244427801,-2,-7,0,-1,-5,-12,-8,-8
7244435299,3,5,17,7,13,8,2,-2
7244435299,4,-7,-1,-13,-3,1,2,0
7244450233,7,13,3,9,4,-2,0,6
7244450233,3,4,2,4,2,4,-1,1
7244458446,-16,1,-1,0,-6,-5,1,-1
7244458446,6,14,-7,-5,-1,-7,-2,-3
7244473394,7,-14,12,12,-4,-7,-3,3
7244473394,-3,-2,-2,-11,-1,2,-2,-5
7244474244,8,9,6,11,2,-2,0,1
7244474244,-10,11,2,-5,2,3,5,2
7244487819,3,-9,0,3,0,-1,2,5
7244487819,11,11,-11,-8,-4,1,0,0
7244495317,-10,-12,2,1,1,0,-3,2
7244495317,-5,-18,-1,-3,-2,-7,-6,-4
7244510372,-8,-27,-1,-2,-3,7,8,-6
7244510372,-3,-35,-6,-6,-4,-9,-3,2
7244518478,5,-10,-3,-1,0,-3,9,-4
7244518478,-10,-4,-6,-5,2,3,-18,-2
7244533406,-3,9,1,-1,-3,0,-17,-4
7244533406,11,11,1,-4,-5,-7,1,7
7244534284,1,-14,-5,-1,1,2,1,1
7244534284,-15,-14,-4,0,-1,-7,1,-5
7244547767,2,-1,-2,-1,0,-6,0,-4
7244547767,3,-4,-1,-2,-2,6,-6,2
7244555369,8,11,0,1,-2,-11,-2,0
7244555369,-6,8,-2,-4,-3,8,-26,-3
7244570335,-20,-4,-6,-3,-2,-4,-3,-4
7244570335,-15,-11,-6,-8,-5,-4,-2,-9
7244578465,-7,3,2,1,0,0,8,1
7244578465,20,-3,-3,-2,-1,10,9,1
7244593488,-7,-5,1,-2,0,-5,-7,1
7244593488,-1,8,-3,1,-1,-4,-8,-5
7244594170,-1,3,1,0,-1,4,-7,0
7244594170,7,-3,-2,-1,-2,-8,6,0
7244607812,6,11,-3,-3,-2,2,-1,2
7244607812,-14,15,0,1,-1,1,9,-3
7244615336,32,8,5,4,1,1,0,0
7244615336,-22,14,1,-2,3,-3,4,-2
7244630270,-30,-25,16,14,-9,-1,3,-1
7244630270,-56,-2,-16,33,-7,-11,-16,-21
7244638453,1,-3,6,-39,3,-1,-2,1
7244638453,25,-27,-31,-3,-2,-7,-4,0
7244653495,-15,-35,5,28,-5,-1,-8,-12
7244653495,27,34,-33,-37,-11,3,7,8
7244654207,-62,-81,4,-5,2,9,-3,-9
7244654207,8,77,-39,-17,10,1,12,-2
7244667775,26,44,25,1,-13,-11,-5,9
7244667775,2,-102,-31,-74,-8,-2,7,1
7244675333,24,79,12,-7,-28,-11,-6,5
7244675333,-15,-12,-1,16,1,0,-11,-10
7244690350,1,2,2,40,16,9,6,-2
7244690350,20,-13,61,48,3,0,-1,11
7244698513,9,44,-47,-60,5,5,7,5
7244698513,-16,-58,7,-10,-11,-7,-1,-3
7244713451,27,29,2,-16,-4,0,3,4
7244713451,7,41,3,-6,4,-1,-15,-5
7244714143,-15,-11,4,18,-4,-5,-3,0
7244714143,2,19,11,19,1,-6,0,-4
7244727808,-17,16,-22,-32,-1,7,2,-3
7244727808,2,56,7,16,10,5,8,3
7244735331,-29,-24,-4,24,-6,-9,-4,-11
7244735331,10,-17,8,3,-5,-8,-32,10
7244750294,7,-7,-4,-9,-11,-7,3,-6
7244750294,-7,-24,-5,-13,7,-14,5,-8
7244758529,25,-5,7,15,18,31,7,5
7244758529,-15,-28,21,9,10,10,6,-2
7244773404,-5,-32,-25,-24,20,2,4,0
7244773404,0,-13,5,24,-14,-5,-6,-2
7244774164,3,-24,1,18,3,-10,-5,-4
7244774164,14,15,1,-18,-19,-4,10,2
7244795872,-1,4,-7,0,0,1,-3,-2
7244795872,-12,-8,-5,-13,-4,3,6,-5
7244796655,4,3,0,0,-4,-4,-6,2
7244796655,-14,-8,-5,2,-2,-2,8,-3
7244810307,9,7,3,-2,2,-2,-1,2
7244810307,15,6,-5,-4,2,3,5,4
7244818494,-15,-1,3,0,-5,-10,-5,-6
7244818494,2,9,2,5,2,4,2,-1
7244832769,-11,-21,-16,-17,3,2,-5,-6
7244832769,-2,4,-4,4,5,3,4,1
7244841002,-8,2,10,28,-2,-4,-6,-6
7244841002,10,18,7,-8,7,-6,3,4
7244847801,4,19,4,-1,-6,-6,-3,1
7244847801,-5,6,-5,2,5,1,-4,-1
7244855285,-2,2,-8,-13,-13,-9,-3,-4
7244855285,1,-5,2,8,1,1,-3,0
7244870300,1,0,-2,13,7,5,6,1
7244870300,2,6,1,-12,-7,-1,-4,-1
7244878538,11,1,1,9,0,-9,-3,0
7244878538,-6,-1,3,-14,-2,10,-4,-1
7244892734,-12,-3,-6,-16,0,0,-2,-2
7244892734,5,-1,-6,3,-1,0,-1,3
7244900952,-1,-1,-3,-1,7,7,2,-1
7244900952,9,22,3,6,-3,-13,2,2
7244907808,1,-3,-5,-5,-9,4,1,0
7244907808,-8,-1,-2,-2,-3,0,-6,-3
7244915292,7,5,-2,3,7,5,6,3
7244915292,-5,-9,-4,1,-1,0,-1,1
7244930289,-7,1,9,1,-5,-7,2,-2
7244930289,9,22,11,7,1,-3,-4,1
7244938476,-1,-11,-1,2,4,6,5,2
7244938476,-7,-3,-3,-9,-4,-2,1,-5
7244952829,9,5,-4,-5,-3,-6,-10,2
7244952829,1,2,5,4,2,3,-1,2
7244961641,-7,2,-3,-3,0,6,6,-2
7244961641,7,4,-1,-6,-6,-5,-21,-4
7244975237,5,4,0,-1,-5,-6,24,1
7244975237,0,-17,1,6,2,8,-8,1
7244984197,-8,-5,-1,-2,1,-4,-5,0
7244984197,-11,-11,4,-2,-2,0,7,-3
7244990322,2,-14,0,3,-1,-12,-4,-2
7244990322,5,-5,-1,-1,-1,13,1,0
7244999120,5,-6,-4,-6,-3,-1,3,-3
7244999120,-10,-23,-3,0,0,2,5,-2
7245012736,-15,-2,-2,2,0,-1,-7,-5
7245012736,10,-3,-2,-3,-2,-4,4,3
7245021684,-1,-1,-2,-1,-1,0,-5,1
7245021684,8,7,-7,-3,0,0,5,-1
7245035193,3,5,-2,0,-2,-10,-9,-5
7245035193,-25,0,-4,-3,-1,4,0,-2
7245044192,10,7,0,0,-3,-1,1,1
7245044192,18,4,1,-1,0,-1,3,3
7245050365,-19,-4,-1,-1,-1,4,6,-3
7245050365,-13,-3,-4,-1,-2,-6,-25,-2
7245059198,-6,8,0,-1,-3,-3,-1,-5
7245059198,-7,-8,-2,-3,-2,1,1,-3
7245072821,27,7,1,8,2,5,-4,2
7245072821,19,19,2,-22,-11,-9,4,2
7245081676,-31,-40,-23,15,3,-7,-9,-5
7245081676,4,14,-3,-8,9,11,2,-3
7245095282,6,-10,7,10,1,6,-4,5
7245095282,-13,7,6,5,0,-2,4,-3
7245104207,1,-20,3,-7,-7,-11,-10,-7
7245104207,-5,10,-14,-9,1,-1,5,3
7245110311,-1,-13,2,8,-6,2,0,2
7245110311,-6,21,-14,-25,5,-3,6,-4
7245119173,12,19,5,1,-1,-2,0,2
7245119173,-20,-10,0,8,-5,-2,-6,-6
7245132788,7,6,0,-18,10,5,-2,-2
7245132788,18,-6,-2,-3,-12,-8,1,3
7245141691,-30,-4,2,3,-11,-5,-15,-8
7245141691,23,4,9,9,0,4,8,11
7245155211,-25,-1,0,4,3,1,-10,-1
7245155211,3,-14,0,-7,-1,0,12,-1
7245164185,21,10,-4,-12,1,1,6,4
7245164185,-12,15,6,9,-4,-3,-3,-4
7245170295,-9,8,-5,-7,-10,-9,4,-3
7245170295,-7,-5,0,18,6,9,2,-2
7245179210,1,19,3,0,1,5,-5,1
7245179210,4,-2,-2,-12,-13,-11,-6,-4
7245192779,9,5,-14,4,12,3,23,8
7245192779,1,-5,-4,3,6,-1,-25,-10
7245201682,3,-6,7,5,-1,2,3,2
7245201682,7,-14,0,-1,8,7,3,4
7245215345,-2,-11,-9,-11,-8,-6,-6,-2
7245215345,-8,-20,-7,-4,-14,-13,-2,-3
7245224145,-7,2,5,-7,-7,-7,-3,-1
7245224145,-4,-9,6,16,15,7,7,-2
7245240557,8,3,-4,0,-2,3,-2,2
7245240557,-4,-6,5,15,1,-5,2,-4
7245243467,1,3,-7,-39,-20,-9,-7,-9
7245243467,0,5,-6,-1,8,-8,0,4
7245254637,4,2,12,13,0,14,-2,-1
7245254637,-5,-4,5,8,4,-1,0,-1
7245261699,8,11,8,22,9,4,10,5
7245261699,-10,1,-9,-12,-15,-2,-4,-4
7245275237,-6,-12,-3,12,22,8,-1,-4
7245275237,-1,9,-2,-16,-14,-6,0,0
7245284265,1,7,12,6,3,3,2,0
7245284265,-4,-4,3,-1,-7,-2,-4,-2
7245290216,9,12,-3,-15,-11,-9,-7,-3
7245290216,-11,9,-2,2,6,10,13,5
7245299201,12,-2,-16,-6,8,3,2,4
7245299201,-3,7,5,-2,-6,-7,-6,-5
7245312630,-11,-9,12,0,-5,0,-2,-1
7245312630,3,-10,3,13,8,2,3,2
7245321640,-6,-13,-13,-10,-5,-8,-4,-5
7245321640,14,5,6,11,8,8,9,4
7245335224,-5,-4,-1,-3,-5,-4,-3,-1
7245335224,-2,-8,-6,-4,-2,-3,-2,0
7245344196,5,7,-2,6,3,2,-3,0
7245344196,-22,-15,1,-5,-3,-2,7,-7
7245350242,-5,-8,-16,-13,-8,-6,-7,-2
7245350242,5,6,2,-1,-1,0,1,-1
7245359299,15,6,1,2,3,4,0,9
7245359299,-2,17,2,0,-1,-3,-2,-1
7245372783,-8,1,2,-5,-5,-6,1,-5
7245372783,-4,-14,0,-1,0,3,-11,-1
7245381741,3,-1,-6,-1,1,-3,13,2
7245381741,4,-3,-7,-6,2,9,18,5
7245395186,4,10,6,3,-1,-7,-2,-2
7245395186,3,-12,-7,1,4,1,30,4
7245404194,-5,-4,1,0,2,10,5,0
7245404194,-1,-15,4,-1,-5,-8,-18,-5
7245410261,-3,-2,-7,-7,-2,-2,10,-5
7245410261,17,9,-1,1,1,-5,-4,-2
7245419239,3,-11,2,-4,-1,2,11,6
7245419239,-7,-8,-6,-2,-5,-4,-1,-2
7245432717,4,4,10,7,4,4,-3,0
7245432717,-1,-11,-5,-3,-1,-4,-6,-4
7245441715,-19,-15,-7,-4,-4,-3,-9,-3
7245441715,-1,-1,-3,-3,-2,-4,-7,0
7245455959,-10,1,15,5,0,0,-6,-2
7245455959,11,-3,-4,-2,1,0,-8,1
7245470927,-1,-1,1,-1,-1,-7,-1,-6
7245470927,12,5,-5,-3,-1,2,-7,3
7245471709,-13,-3,-7,-5,0,-1,-5,-5
7245471709,-4,6,2,-1,-3,-1,5,1
7245479155,25,9,1,2,3,0,-3,3
7245479155,3,1,-1,-4,-3,-2,-7,1
7245492743,-5,-1,-6,-6,-3,-1,-4,-3
7245492743,-45,-2,0,-1,-3,-1,-5,-10
7245501660,1,3,-3,2,2,-2,-17,1
7245501660,-20,-7,-7,-1,0,2,-17,-4
7245515894,36,0,7,3,-1,3,1,12
7245515894,26,-13,4,-6,-5,-4,-4,-1
7245522757,-19,31,2,26,-2,-1,6,-6
7245522757,-9,-42,-4,-20,-2,-8,-12,-1
7245530254,8,-26,6,1,-13,3,9,8
7245530254,-6,5,-47,-78,-7,-6,-12,-13
7245539229,3,9,14,14,10,8,17,10
7245539229,7,96,79,97,25,21,4,7
7245552785,25,60,-60,-73,16,6,6,6
7245552785,-30,-25,-19,-14,-8,-8,-3,1
7245561617,21,-61,14,-10,-2,-3,-3,6
7245561617,6,47,17,-2,-8,-11,4,-8
7245575928,19,37,5,-22,-6,-1,15,8
7245575928,-3,14,-4,34,21,14,-19,3
7245582681,-30,-37,-2,-12,-1,2,4,-4
7245582681,-1,-29,-6,54,-12,-9,2,-12
7245590263,6,-13,-8,-48,5,3,-17,6
7245590263,16,20,3,-9,-6,-9,-1,0
7245599168,-41,10,-6,15,-19,-4,12,-9
7245599168,6,-21,-24,-42,-2,0,-20,-2
7245612665,-16,18,5,21,-10,-4,-12,-9
7245612665,4,34,8,36,-1,-11,15,5
7245621680,9,19,4,-14,3,20,-18,-6
7245621680,-13,13,-15,-25,-4,-2,-2,0
7245638072,-25,-20,-4,16,0,-2,-3,-8
7245638072,8,-2,29,23,0,0,1,4
7245639713,0,4,-9,-12,-1,-9,-4,-10
7245639713,8,-24,-25,-46,-11,-6,4,3
7245650222,-14,-35,0,20,-7,-6,-7,-9
7245650222,-2,-21,2,2,-8,-1,2,-2
7245659162,18,-3,-3,3,7,2,3,1
7245659162,-8,-22,-9,2,11,11,11,2
7245672761,-17,-30,13,33,23,7,2,-2
7245672761,13,0,1,-5,-2,3,1,1
7245681695,-13,-6,-8,6,4,-8,-4,-4
7245681695,5,-14,-7,-18,-16,-4,6,2
7245696584,4,3,-4,0,-10,-12,-3,-5
7245696584,-7,-2,2,-14,-10,-2,-4,-5
7245698162,4,7,6,13,2,3,-2,2
7245698162,21,15,-4,3,12,-7,1,0
7245719049,-27,-1,-3,-11,-3,1,2,-7
7245719049,0,-10,1,15,-2,-3,-4,-3
7245720669,-10,-4,9,-22,-14,-13,-12,-9
7245720669,-14,-12,-6,-11,2,-5,2,-6
7245732752,10,6,6,20,3,4,0,4
7245732752,6,2,2,-11,9,5,3,2
7245747786,6,10,-6,-1,1,1,3,3
7245747786,-10,-6,9,7,-5,-6,-7,-8
7245755984,-1,-9,7,0,-7,-7,-6,-3
7245755984,-4,5,-4,2,-4,-5,0,-3
7245762772,3,8,-6,-3,0,-2,-2,-3
7245762772,-8,-1,-5,3,0,4,9,4
7245770222,13,-2,7,3,-5,-13,-6,1
7245770222,10,19,8,3,-2,17,6,6
7245779149,-7,-11,-4,-11,-9,-6,-3,-4
7245779149,8,-8,-11,-1,-2,0,-2,0
7245792765,-27,-2,4,5,1,2,-1,-6
7245792765,-2,-2,4,3,6,-6,5,0
7245801594,14,5,-3,-3,-4,-3,-5,1
7245801594,-10,2,0,-6,-2,3,0,2
7245815976,14,7,-10,-7,-6,-4,-1,-2
7245815976,-6,-6,0,-6,3,1,-5,1
7245822711,-10,-11,1,19,1,1,-1,-1
7245822711,0,-7,-4,5,7,4,3,-2
7245839130,4,2,-2,-1,1,2,1,-1
7245839130,-2,-3,-3,-12,-5,-4,-4,-1
7245840748,5,2,-7,0,4,-3,-3,4
7245840748,-3,2,7,0,-5,-4,-4,0
