timestamp,emg1,emg2,emg3,emg4,emg5,emg6,emg7,emg8
7228412942,-11,-91,2,3,1,5,-1,-2
7228412942,7,100,9,-3,-1,-5,-6,-2
7228413724,-7,-80,-5,-5,0,-1,-13,-3
7228413724,-8,-61,-11,-6,-7,-6,3,-5
7228417946,28,1,-4,3,2,-3,7,6
7228417946,-27,53,4,4,3,3,-1,-2
7228418614,20,-62,-14,-10,-4,-2,0,7
7228418614,-20,114,13,5,-1,1,-6,-12
7228423708,-40,88,-19,-5,-15,-12,-16,-17
7228423708,48,-72,8,-22,5,4,18,16
7228432380,-35,26,-18,10,4,6,3,-9
7228432380,-18,48,13,-3,6,-1,2,6
7228440066,-6,-88,-40,-56,0,6,0,-1
7228440066,-3,-34,-16,-30,-30,-13,-8,-6
7228453680,30,69,25,14,11,1,-6,-2
7228453680,30,-128,39,35,-9,-8,-9,8
7228465109,-3,111,-2,11,2,-10,-15,-11
7228465109,-28,-17,-28,4,6,0,-6,-13
7228468589,18,-12,-2,-16,9,20,15,20
7228468589,-3,-17,-15,-10,3,1,5,-6
7228483664,16,42,15,12,2,2,4,8
7228483664,-28,8,-11,7,-20,-24,-16,-15
7228531799,7,27,6,0,15,7,0,13
7228531799,7,54,6,6,1,4,5,-1
7228532619,-3,-52,3,13,-2,-5,-11,-4
7228532619,-4,-68,-5,-15,-5,-9,17,2
7228537258,-7,3,-7,-8,-11,-5,-3,-4
7228537258,1,-3,-10,-19,-31,-7,0,4
7228538056,-2,63,4,-7,20,25,14,-2
7228538056,15,22,6,63,47,11,5,6
7228543360,1,7,11,-6,7,-6,-9,-3
7228543360,-6,-41,-14,-7,-14,-15,-2,-5
7228550973,-11,-66,-4,-9,-44,-8,-8,-10
7228550973,-6,-64,-1,-21,4,3,-8,-3
7228559896,2,-80,-3,-9,29,10,7,1
7228559896,-1,-55,-2,10,0,-18,-8,-2
7228573388,2,-47,-5,-23,-13,14,-4,-2
7228573388,-2,-17,-9,21,-3,-3,-6,-3
7228582331,-8,-24,5,14,-28,-1,-1,-7
7228582331,8,-12,4,2,47,-1,3,3
7228588514,-6,-18,-4,-8,-12,-10,-1,-1
7228588514,-3,14,12,1,10,-6,-6,-3
7228603284,0,-10,-23,-4,1,1,-5,-2
7228603284,-2,-7,-15,-22,6,3,3,2
7228610895,3,15,4,30,4,0,-7,2
7228610895,-3,16,-3,-29,-14,9,1,-1
7228620018,-4,-14,-1,-15,-19,-14,-11,-2
7228620018,3,9,1,22,10,13,15,2
7228633455,-1,17,-8,-2,8,-6,0,1
7228633455,8,22,-2,-21,-17,-7,-17,0
7228642342,5,23,12,18,1,1,5,2
7228642342,-6,6,3,-11,-10,1,-6,-1
7228648413,-1,17,4,7,15,0,0,-3
7228648413,-5,-6,-4,-5,-10,-5,5,-2
7228663353,1,4,5,12,7,2,2,-2
7228663353,3,0,1,-3,-2,6,-4,0
7228670993,0,-7,-2,-9,3,-7,-1,1
7228670993,0,6,3,6,-5,1,-2,-1
7228679915,-1,3,-18,-19,-2,-5,4,-3
7228679915,-1,-5,-1,3,-5,6,-11,-5
7228693467,-5,0,-4,-1,3,-9,-23,0
7228693467,-4,-1,-6,-8,-15,-3,7,-7
7228702484,2,-4,6,12,7,4,-1,3
7228702484,-3,-1,2,1,-4,-1,-3,-5
7228708448,6,-2,1,0,1,-13,-11,0
7228708448,2,2,3,5,4,4,16,2
7228723312,4,5,5,0,-3,5,0,-2
7228723312,-14,-7,-2,-1,-2,-10,-9,-3
7228730983,-2,-6,0,-4,-3,-2,9,3
7228730983,-8,-9,-3,5,3,0,17,2
7228739803,4,0,-2,-1,-3,9,16,-1
7228739803,4,-3,0,1,-5,-1,-16,3
7228753466,11,5,6,5,4,3,3,-1
7228753466,-1,11,-2,-7,-4,-1,-13,-3
7228762375,-10,-4,-2,-2,1,-6,-6,-1
7228762375,-8,0,3,2,-1,-2,3,-6
7228768465,-4,11,0,-2,-1,-21,4,-4
7228768465,14,3,1,-1,2,22,-27,7
7228783458,14,6,-4,-3,-4,-4,8,5
7228783458,10,10,11,2,2,7,1,2
7228790995,-27,-34,-24,-12,-4,-2,-3,-6
7228790995,-4,-3,-2,-2,-6,-10,-6,-5
7228799810,-12,-13,-2,6,-2,-3,-5,-6
7228799810,6,14,-3,-1,-1,4,5,3
7228813438,18,6,-2,-5,-1,3,3,3
7228813438,-6,-7,6,11,-1,-5,-5,-4
7228822313,13,-59,11,5,-1,2,-2,3
7228822313,-32,-16,-26,-19,-2,-5,3,-5
7228828436,16,35,19,5,-7,0,-1,4
7228828436,-3,-39,-12,17,21,3,4,1
7228843385,-5,-6,-2,-13,-14,-11,-8,-6
7228843385,21,-40,15,20,11,8,6,3
7228851026,8,47,11,-1,9,7,4,-1
7228851026,-18,9,-5,-14,-6,-3,1,-2
7228859804,-11,45,-2,-4,-1,-5,-4,-1
7228859804,-20,-28,-16,-24,-12,-11,-12,-10
7228873404,15,60,-13,-10,-5,2,1,0
7228873404,35,-36,16,20,3,0,5,6
7228882343,-39,37,-11,-10,5,3,-2,-4
7228882343,-6,29,16,5,-10,-6,-9,-4
7228888393,9,6,9,-2,0,2,5,4
7228888393,1,-37,-7,-12,-4,-8,-6,-4
7228903453,11,80,-7,-1,-12,-6,-5,0
7228903453,2,34,8,30,16,12,11,0
7228910945,-25,-31,-21,-25,-2,3,13,2
7228910945,5,-30,-16,8,-6,-8,-24,-9
7228919919,-2,5,18,14,2,-1,1,6
7228919919,16,34,2,-10,-10,-3,12,-2
7228933420,-30,3,-13,-5,-4,-8,-12,-1
7228933420,-9,21,5,-6,3,3,3,-4
7228942358,17,32,-3,-11,-9,5,3,4
7228942358,-7,15,0,15,3,0,-6,-3
7228948307,5,-35,5,12,7,-12,2,0
7228948307,8,31,3,-10,-1,6,7,4
7228963436,-12,-76,-2,9,21,7,-13,-10
7228963436,15,1,-1,-5,-1,9,10,12
7228970989,1,-33,15,14,-2,5,-2,4
7228970989,-10,6,-5,-7,1,-14,-1,-2
7228979912,11,5,-2,-25,-33,-8,0,-3
7228979912,-17,-40,-6,6,44,-5,-5,-2
7228993514,-4,-17,-13,-22,-14,-18,-11,-8
7228993514,-7,17,4,-1,-43,26,9,3
7229002348,4,-28,-13,-1,37,8,12,0
7229002348,6,-13,15,-11,18,-20,-3,3
7229008373,5,-5,-8,4,-47,20,-4,-2
7229008373,3,20,-12,-14,32,4,-4,-6
7229023486,-10,-18,-20,-15,14,-24,-5,-2
7229023486,-17,-26,-1,-4,-105,15,-2,-11
7229030908,10,13,22,41,87,24,17,8
7229030908,7,3,-8,-18,23,-7,3,6
7229039791,-17,-20,7,-1,4,-10,-11,-11
7229039791,4,3,-5,-1,15,-10,4,4
7229062322,-3,7,-14,-2,-2,-18,3,-4
7229062322,-10,5,-13,-25,-57,18,0,5
7229063837,-7,-3,0,7,8,-1,-6,-21
7229063837,11,12,-6,-13,-21,-18,-44,-8
7229068434,-15,-14,11,-4,-12,-27,-13,-19
7229068434,-15,9,-13,-7,27,-13,-87,6
7229083490,9,-1,-5,-10,-25,4,22,15
7229083490,-2,8,-8,-4,-9,-19,25,0
7229090984,9,15,5,1,14,34,22,0
7229090984,2,23,10,10,4,-18,2,-1
7229099966,-4,5,-8,-1,-20,2,-22,-7
7229099966,3,20,5,-6,-7,-10,-23,-3
7229113454,10,-8,3,4,2,2,28,9
7229113454,-5,-14,3,2,-13,-5,18,-11
7229122329,8,-2,-5,4,-2,-15,31,6
7229122329,2,-14,2,16,28,29,20,5
7229136695,-3,-24,-8,0,-8,-12,-19,-3
7229136695,-1,-4,8,4,3,5,3,-8
7229143469,8,-3,-2,7,4,12,26,11
7229143469,-1,-7,-2,-6,5,-3,-9,-1
7229150977,1,-14,-7,-3,-11,7,0,-5
7229150977,-1,-5,11,7,-5,-8,21,1
7229159917,10,-20,8,3,0,-8,-21,2
7229159917,-12,-49,-10,-5,0,4,12,-3
7229173495,-2,-19,0,0,-2,2,-18,0
7229173495,-15,-15,-4,-8,-2,-6,6,-6
7229182338,5,-11,2,19,10,7,-5,3
7229182338,14,13,-15,-2,2,7,-5,0
7229196606,-27,-2,-3,0,-7,-9,-6,-2
7229196606,-1,-5,1,12,10,4,-1,-8
7229203445,-3,-4,34,-22,-16,3,-8,4
7229203445,1,3,-21,2,5,4,7,1
7229210766,1,6,2,11,-7,-7,-10,-2
7229210766,-16,2,-13,-21,3,-1,14,-4
7229220015,-7,41,15,24,-1,7,-5,1
7229220015,11,45,15,7,8,-2,-7,1
7229233301,-6,-23,-9,-13,-5,2,33,-4
7229233301,-4,65,16,11,-1,-7,-7,12
7229242441,14,-52,-13,-4,1,21,20,1
7229242441,-20,-1,7,-2,-3,-6,-27,-4
7229256658,19,-4,-1,9,1,4,12,9
7229256658,7,-27,-21,-12,-7,-6,-1,-8
7229263449,-21,-8,-27,-6,5,-3,5,-1
7229263449,-17,-35,6,-11,-1,4,7,-1
7229270932,12,-30,-21,-3,-9,-1,-13,6
7229270932,13,75,13,16,9,1,10,5
7229279814,22,-45,-3,7,4,2,-15,-5
7229279814,29,46,29,0,-6,-3,6,-4
7229293505,-75,-93,-19,-29,4,-4,6,-4
7229293505,16,121,-20,-3,-8,-3,-18,5
7229302318,-31,-55,19,-5,-9,-12,-10,-16
7229302318,-8,7,10,1,3,9,9,4
7229316645,29,14,-19,-8,-21,-19,-22,-11
7229316645,-3,-28,58,22,6,3,10,-3
7229323425,28,73,-40,-77,13,3,-4,17
7229323425,-7,-80,-6,33,-10,2,-1,-7
7229332240,2,24,24,43,33,16,-2,7
7229332240,3,-76,-5,5,4,-4,-1,6
7229345958,4,97,22,-2,-2,-15,-10,-8
7229345958,0,67,-13,-31,-41,-1,-1,-4
7229353431,-1,88,20,6,2,-11,6,6
7229353431,13,-22,-5,11,32,5,-11,-4
7229362355,-26,-28,-9,16,33,-18,3,-13
7229362355,-16,-31,-21,-23,-14,14,10,3
7229377121,25,-38,1,-14,-20,21,2,-5
7229377121,-17,-43,28,24,-27,-12,-23,4
7229383453,-3,-19,-1,6,26,-1,29,0
7229383453,8,-28,6,22,60,10,-16,3
7229390932,2,11,-1,-21,8,-13,3,2
7229390932,-10,-36,-25,-19,-14,2,-11,-10
7229399813,9,-1,-10,-3,-39,-22,-14,0
7229399813,-3,-4,9,3,-25,3,-2,-4
7229413516,2,9,3,6,25,4,-3,1
7229413516,-15,-12,-28,-28,9,-25,-1,-9
7229422317,-6,-13,6,-5,-34,19,-3,-1
7229422317,6,9,12,5,-4,-18,3,1
7229436660,-15,10,16,21,15,11,-5,-7
7229436660,-2,-31,-12,4,-1,4,18,0
7229443445,-6,-5,3,-20,-13,-3,-10,-1
7229443445,-3,8,17,69,-1,-13,-4,0
7229450967,8,35,-49,-44,6,13,-5,0
7229450967,-4,8,9,-1,-13,2,8,-2
7229465905,3,24,-10,12,8,5,0,5
7229465905,-1,15,-15,-60,-9,0,4,-2
7229473290,6,3,-3,2,-3,-19,-9,4
7229473290,1,-11,14,38,0,11,13,-3
7229482326,-4,0,-7,-2,2,3,-5,-3
7229482326,-7,-24,-9,8,4,-11,-4,-3
7229496596,-6,-6,0,-27,-23,-4,-7,-6
7229496596,5,13,-4,-32,-5,1,4,4
7229503383,-1,-7,3,21,-1,4,-1,-2
7229503383,-3,0,-1,-2,6,-9,-5,-3
7229519128,0,5,1,4,2,4,1,0
7229519128,19,8,-10,-1,-4,-4,0,4
7229525987,-2,4,6,18,1,-2,-1,-1
7229525987,6,7,-3,-8,8,13,12,4
7229533343,-2,-7,-3,10,-5,6,-8,1
7229533343,17,0,-1,-9,1,0,3,1
7229542292,-5,2,0,4,-3,2,9,0
7229542292,-28,-28,-17,-19,2,-5,7,-6
7229556497,11,-6,25,8,-6,10,-10,3
7229556497,-4,-4,-29,-3,-2,-4,-1,-2
7229563318,7,-1,-5,3,2,-1,-5,0
7229563318,7,12,4,3,0,-12,-7,-3
7229579090,-5,20,16,-3,-8,0,9,-1
7229579090,-3,11,8,-8,1,9,-1,2
7229585856,-1,8,-81,9,-1,-13,-7,-3
7229585856,-3,8,7,-11,-7,6,-4,2
7229593471,-11,-11,13,0,5,4,3,-3
7229593471,-3,-10,13,12,15,13,10,1
7229602320,-8,-12,16,-6,-5,-4,-5,-1
7229602320,3,-9,-3,2,-2,-3,1,1
7229616613,15,-21,-14,-9,-8,-17,-7,0
7229616613,-3,4,4,-8,-11,-5,-1,-2
7229623315,-2,14,18,-12,0,5,-3,-1
7229623315,4,-4,-5,13,7,-2,-4,0
7229638987,-17,-9,-9,4,-1,2,-2,-6
7229638987,-10,1,-1,-2,-6,-7,0,-1
7229645871,21,11,22,15,0,4,0,4
7229645871,17,15,-1,-19,0,3,-1,1
7229662265,-27,-20,-1,8,0,-8,-2,-6
7229662265,-18,-4,-3,-9,-4,-2,-3,-6
7229663780,-11,-4,-18,-11,-2,1,-3,-2
7229663780,10,-16,6,1,-3,-1,0,3
7229676608,26,67,8,16,-3,-9,-1,2
7229676608,18,13,-9,-6,9,6,2,3
7229683435,-21,-12,61,42,7,11,9,-1
7229683435,-16,-8,-24,-20,2,-8,-6,-5
7229699142,5,7,-11,-14,-2,-1,-2,-2
7229699142,-11,-3,-30,2,0,-3,-3,0
7229705967,7,11,5,-15,-7,-2,-6,-6
7229705967,24,62,11,28,6,6,8,5
7229722283,-31,-112,-24,-5,-4,-7,-7,-8
7229722283,11,27,7,-21,-11,-9,-7,-4
7229723820,15,44,26,35,5,5,2,3
7229723820,-33,-26,-13,-23,8,6,2,-2
7229735969,-3,-21,-16,-9,1,-1,-1,-6
7229735969,6,-21,7,9,-1,0,-1,1
7229744775,-3,9,-10,-15,-11,-9,-5,-1
7229744775,2,-2,-2,-9,-7,-5,-6,-3
7229759126,20,54,11,10,-1,-1,4,5
7229759126,-18,-48,0,-4,4,2,2,-2
7229765904,0,-18,-17,13,8,6,0,-2
7229765904,-15,18,0,-5,-7,-5,-4,1
7229782283,1,16,-2,-14,-9,-7,-2,-3
7229782283,-4,24,7,24,-13,-3,-1,1
7229783767,-5,-5,-1,-2,13,3,-2,-2
7229783767,6,-10,0,15,8,2,0,-1
7229795932,1,6,10,-22,-31,-18,-4,1
7229795932,4,-4,-13,-22,-4,19,2,-2
7229804821,1,-9,0,-5,5,0,7,4
7229804821,-7,-25,-1,19,8,-5,-6,-1
7229819135,11,4,7,17,-4,1,-3,6
7229819135,20,15,12,1,-22,-16,-4,2
7229825935,-27,-9,-19,-15,14,12,8,-2
7229825935,13,-6,7,30,18,12,-3,-2
7229842281,1,14,1,1,14,7,10,1
7229842281,-16,-13,8,22,-5,-4,-2,1
7229843800,3,-11,-1,-22,2,-11,-6,-1
7229843800,-8,-4,-7,-25,-26,-14,-6,-1
7229855799,0,7,-1,8,-15,2,-2,1
7229855799,-14,-24,-11,2,8,-2,-5,-9
7229864792,-7,-8,9,3,-3,-11,-6,-8
7229864792,10,8,2,5,10,3,7,2
7229879110,13,-5,-5,-36,-2,4,1,0
7229879110,-7,18,18,63,2,3,4,1
7229885961,6,11,-29,-54,6,5,-1,2
7229885961,0,-7,-10,-1,3,-5,-2,-2
7229902179,-29,-36,31,14,-17,1,-5,-10
7229902179,16,8,-10,-29,-6,-1,3,5
7229903756,2,-9,-1,17,-13,-4,-3,-7
7229903756,-9,6,-7,-27,-14,3,3,-2
7229915886,10,9,12,35,39,4,3,5
7229915886,-6,-4,-17,-17,0,-6,-5,-6
7229930933,-3,-10,21,35,-4,-5,-4,-4
7229930933,13,10,-22,-54,-17,-1,0,5
7229939106,-5,5,19,50,21,3,1,-4
7229939106,-3,13,14,-6,17,1,1,1
7229945862,3,-13,-25,-43,-22,-7,-2,1
7229945862,-3,6,12,1,-6,-6,-2,-2
7229962259,-1,9,-9,-5,-2,-14,-7,1
7229962259,-1,0,-11,-3,15,27,8,1
7229963787,0,3,-10,3,-8,-3,-2,0
7229963787,1,2,3,12,6,-5,7,1
7229975891,-4,-6,-15,-29,-8,4,-9,-1
7229975891,4,-4,5,4,-4,-12,-7,0
7229984813,-3,-7,14,4,-7,6,19,1
7229984813,-4,-18,-8,-1,4,3,-13,-6
7229999117,-3,-8,-14,-2,-1,-7,12,3
7229999117,-3,-12,0,-13,-6,-3,-2,-7
7230005786,2,3,1,6,1,4,-21,6
7230005786,4,14,5,11,0,1,5,-2
7230022073,1,12,1,-8,-4,1,-8,-1
7230022073,6,-8,4,-4,0,-11,-2,4
7230023716,-13,-7,2,-7,-5,-5,0,-7
7230023716,-18,-30,-4,13,1,5,0,-5
7230035739,7,-26,-6,-8,-1,-4,-4,0
7230035739,-12,1,0,-8,-4,4,-2,0
7230044795,1,5,12,7,-4,-4,-3,0
7230044795,3,-1,-21,-9,2,1,5,0
7230058957,-1,-10,-3,-4,-6,0,4,-1
7230058957,24,11,-6,8,11,-10,-2,1
7230065781,-14,2,9,1,-1,8,1,-3
7230065781,-2,-5,6,-3,0,-2,6,3
7230082115,-10,3,-7,-14,-9,-2,-5,-3
7230082115,1,6,2,-5,-4,-2,0,1
7230083732,6,-11,-7,-2,-6,-10,-5,0
7230083732,7,-3,2,-16,-12,1,-2,-3
7230095767,-10,13,-8,-11,24,10,2,1
7230095767,15,12,-2,-2,0,5,5,2
7230104771,-10,-3,-7,-1,-4,-4,0,-5
7230104771,-18,12,10,-9,-16,-10,-10,-8
7230118933,1,6,-10,12,-5,-6,-2,-3
7230118933,-9,15,-6,-9,-5,-2,-5,-1
7230125788,21,4,-5,-6,-2,-1,-1,3
7230125788,-7,43,14,5,-3,-6,-6,-5
7230142081,11,-2,-1,5,0,3,4,9
7230142081,-26,-16,-7,-7,-4,-5,-10,-13
7230143703,3,12,0,9,-1,2,3,5
7230143703,9,-3,-12,6,12,3,-4,-6
7230155750,-22,-15,-1,0,0,1,4,-7
7230155750,5,7,9,2,-6,-2,3,4
7230164804,-12,-57,0,-8,0,1,-3,1
7230164804,12,13,-7,-2,-14,-13,-10,-5
7230178945,7,41,18,15,13,11,8,0
7230178945,16,35,-14,-5,-2,2,8,2
7230185771,-7,27,-7,4,6,0,-5,-4
7230185771,-9,-5,5,6,4,0,-5,-1
7230209598,-9,24,-14,-27,-17,-27,-11,-8
7230209598,-9,-3,22,20,7,18,9,-6
7230211205,22,-2,5,4,0,3,1,12
7230211205,8,-45,-16,0,-4,-7,-3,5
7230215781,-12,-46,8,0,-4,2,-5,-1
7230215781,-16,8,3,4,12,-10,15,-3
7230224731,7,-29,-20,-18,-39,-23,-49,-11
7230224731,11,11,18,14,20,33,37,11
7230238917,9,-12,-12,5,17,10,9,3
7230238917,2,-10,1,-5,-2,-19,-19,-6
7230245760,-16,-15,10,4,-11,1,1,-7
7230245760,-1,-14,-10,45,15,-25,-7,-4
7230262109,7,1,-2,-29,-62,7,-6,0
7230262109,2,-25,3,10,10,24,9,3
7230263717,-1,13,-9,-5,-19,-15,0,-2
7230263717,-6,-6,-5,-46,-16,-8,-9,1
7230275743,5,-5,-19,-15,13,-10,2,-1
7230275743,-16,-27,13,-12,-18,25,-6,-3
7230284950,0,7,-2,15,14,1,12,-1
7230284950,-4,10,17,73,30,-10,-3,-4
7230299058,-6,-14,-8,-38,-26,-27,-12,-7
7230299058,-4,-10,-38,-55,-11,-13,-15,3
7230305857,-4,10,14,68,7,13,19,-1
7230305857,0,1,4,-48,-27,48,5,1
7230322282,7,7,21,102,16,-22,-1,3
7230322282,-5,-1,-34,-75,4,-18,-6,-2
7230323765,4,11,-3,-8,6,4,12,-2
7230323765,-1,-3,4,35,12,-21,-11,-1
7230335877,-4,-1,-3,-26,-10,16,2,-2
7230335877,5,9,-2,14,-8,-14,2,4
7230344761,-7,-1,40,19,-3,16,-10,-7
7230344761,-4,5,1,-46,-13,-14,-8,-3
7230359079,10,3,-39,34,32,13,7,9
7230359079,-6,-2,-3,-21,-16,-2,-2,-7
7230365910,6,18,-9,-24,21,-10,9,3
7230365910,-2,9,17,9,-15,5,-1,-1
7230381474,-6,2,10,18,-2,3,-3,-3
7230381474,3,-4,-22,-7,3,-12,-3,0
7230388405,4,5,-5,2,-3,4,0,1
7230388405,3,-2,0,-8,2,1,4,3
7230406067,-10,-6,-1,-19,-9,-12,-6,-6
7230406067,-1,-13,4,30,2,18,-7,-4
7230407715,-2,-3,8,-13,8,-9,1,1
7230407715,-5,-18,-30,-16,-3,-3,-6,2
7230419806,7,-2,8,-5,9,1,16,-1
7230419806,-3,-13,9,18,-2,-10,-11,3
7230425845,4,5,-23,-28,-8,-4,-12,0
7230425845,3,4,2,4,6,1,5,1
7230440945,5,27,22,2,-1,12,11,-1
7230440945,5,-5,8,15,1,0,-1,-6
7230448427,-27,-32,-9,-6,-4,-1,10,0
7230448427,-18,-48,-5,1,2,0,-4,-8
7230463970,-3,-29,-6,-16,3,-2,-11,-3
7230463970,21,7,5,8,-1,4,6,4
7230464883,-3,9,11,-5,5,-2,-6,-3
7230464883,-17,-23,-8,-1,-5,-20,-3,-5
7230479742,2,-1,-1,-33,-10,15,-26,0
7230479742,10,-5,8,48,11,-3,5,0
7230485792,24,-19,-2,6,-1,-7,5,3
7230485792,-3,27,-11,-26,4,11,1,1
7230500834,-18,-30,2,-6,-10,-8,-6,-6
7230500834,-11,31,17,-7,-1,3,1,9
7230508387,14,26,-4,1,3,9,-6,-5
7230508387,14,47,12,8,2,2,32,7
7230523920,-38,-43,8,9,2,-4,-23,-14
7230523920,23,55,7,-13,2,7,12,8
7230524734,-22,9,-17,9,11,3,3,-6
7230524734,22,28,15,-4,3,-2,-5,2
7230546491,-3,-29,-27,6,-7,-11,5,-4
7230546491,5,-11,-2,-7,0,-2,10,8
7230547305,-21,4,-6,-22,-12,-2,-16,-16
7230547305,-8,4,11,13,3,3,-7,0
7230560877,-5,33,-2,-32,0,5,7,4
7230560877,-17,-10,-42,22,-3,-13,-14,-12
7230568281,-6,5,13,7,2,-3,7,3
7230568281,8,73,0,-7,-13,2,-6,-4
7230583980,16,38,1,-21,-6,-9,2,6
7230583980,1,-13,24,-18,-1,4,-1,-5
7230584875,5,27,-20,1,2,-2,14,4
7230584875,2,20,10,-30,-8,1,-19,-1
7230599812,-14,28,-3,26,12,0,-2,-2
7230599812,3,37,5,-11,-5,-6,-6,-6
7230605883,10,24,10,12,-31,-11,-12,-3
7230605883,0,-69,-1,3,4,-3,10,-2
7230620959,-4,-22,-2,-5,19,16,10,5
7230620959,4,-43,4,-3,-13,-2,-1,2
7230628403,-10,-43,-7,-13,19,1,8,2
7230628403,-11,-33,-1,-7,2,7,-8,-14
7230643990,3,-4,5,-3,-12,4,4,7
7230643990,-11,-27,-19,14,-22,-29,-25,-11
7230644899,11,-27,11,-10,4,8,7,4
7230644899,2,-18,-8,25,27,7,6,3
7230659797,9,-4,-1,-2,14,-8,-11,-8
7230659797,-9,-6,12,15,-16,-4,-1,-4
7230665912,-12,-7,4,-36,-18,3,3,0
7230665912,3,3,-21,-3,-17,-20,-16,2
7230680907,21,2,0,34,38,13,12,3
7230680907,-31,9,5,-32,-25,-13,-6,-3
7230688421,9,20,3,70,25,0,-7,-4
7230688421,1,3,-4,-29,36,-7,8,4
7230704087,4,-3,18,23,-48,23,-1,-4
7230704087,6,-9,1,9,27,2,11,3
7230704784,3,-5,-25,-34,-9,-7,-10,-2
7230704784,-3,-6,-3,34,12,11,3,0
7230719786,-4,2,-3,-22,-5,-21,-4,-5
7230719786,-8,-11,-5,-1,-29,-13,-12,-9
7230725884,1,-1,-8,0,38,10,9,3
7230725884,-1,1,8,4,-19,5,-13,-2
7230740919,4,4,5,-12,11,-13,-2,-2
7230740919,-9,-36,0,13,8,11,-2,0
7230748403,9,4,-17,-49,-14,-12,-1,4
7230748403,-13,-30,-7,14,-19,-12,-1,-6
7230763959,1,4,5,27,13,7,2,1
7230763959,3,9,-15,-42,2,-8,-5,0
7230764746,2,-2,0,34,2,0,5,1
7230764746,-18,-5,-7,-31,-2,5,4,-3
7230779723,5,10,-9,-18,-20,10,0,-3
7230779723,-4,0,2,8,9,-3,0,-1
7230785902,-17,-9,-1,-7,-20,0,-10,-7
7230785902,7,-10,-7,7,-4,8,9,7
7230800851,9,10,11,0,-7,-21,-2,0
7230800851,-1,-12,-8,4,17,13,11,1
7230808366,6,-23,1,0,0,-2,-6,2
7230808366,-15,-15,-14,-8,-14,8,-16,-11
7230823947,-3,-8,-6,-6,-1,-7,-6,3
7230823947,-1,-3,4,0,4,6,-1,3
7230824814,0,6,19,5,-1,-4,6,-8
7230824814,10,2,0,5,-6,-5,-17,8
7230839760,-13,-25,-7,-5,-2,-9,0,2
7230839760,-3,-16,-4,4,2,32,-12,-5
7230845788,20,4,2,4,-2,-15,-17,3
7230845788,-47,-3,1,2,-3,11,47,-5
7230860885,8,-14,-7,-6,-2,-13,-3,-8
7230860885,11,5,5,-1,0,12,-2,4
7230868380,10,-9,1,1,0,6,12,-1
7230868380,12,-31,8,0,-2,-15,-15,3
7230883965,-19,-17,-4,-6,-6,3,-6,-6
7230883965,7,4,-5,-3,3,-24,16,-1
7230884833,14,10,18,-8,-14,13,-5,1
7230884833,-21,17,-31,14,11,2,18,-5
7230899764,42,33,13,13,-1,2,-18,13
7230899764,8,33,42,8,4,-14,-2,-4
7230905869,-53,10,-33,-19,-12,-10,-4,-12
7230905869,68,7,92,-24,-12,-1,3,21
7230920894,-53,86,-42,9,16,2,11,-12
7230920894,11,16,-20,12,16,9,3,-2
7230928377,24,-40,32,32,13,15,14,17
7230928377,-22,-31,-6,-53,-12,-1,0,-8
7230944060,-8,72,-34,38,12,2,-5,-4
7230944060,1,-26,-14,21,-12,-12,-5,-6
7230944757,3,114,35,-62,-13,-6,-8,5
7230944757,-56,-62,-80,19,2,-15,-15,-19
7230959785,70,26,70,-42,-5,8,4,17
7230959785,-68,-39,-32,-23,-28,-6,-10,-15
7230965918,15,-2,13,51,19,2,18,11
7230965918,14,-25,-17,20,-2,-5,-21,-11
7230980825,-19,-18,27,-19,-7,-1,-3,-12
7230980825,13,-29,-41,23,9,11,2,9
7230988503,-3,32,-5,-32,-9,-1,-6,-8
7230988503,9,21,48,19,5,-4,9,9
7231004100,-6,-43,-28,-11,-2,-3,2,2
7231004100,18,23,31,42,-4,4,4,4
7231004759,-2,10,-25,-34,-3,0,11,5
7231004759,-4,98,-1,33,38,13,-25,-6
7231019739,16,42,-13,-3,-21,-3,-5,3
7231019739,-8,25,22,-15,5,-10,2,-5
7231025893,-10,-83,-29,-8,8,-6,-39,-6
7231025893,-2,-32,1,28,-13,1,4,-2
7231040938,-16,-78,8,-12,-2,-1,27,-3
7231040938,7,-44,6,-35,8,19,22,5
7231048423,-3,-53,-11,7,36,0,-45,-5
7231048423,25,-6,10,-2,-37,-33,-4,7
7231064067,-9,-36,-5,29,-2,10,0,-9
7231064067,-17,-11,-6,-49,-58,1,-25,-4
7231064696,-12,1,-2,24,16,8,46,-3
7231064696,21,33,3,16,29,-6,16,7
7231079749,-16,-26,-1,-17,-50,-29,-18,-3
7231079749,-16,-7,-21,-29,16,7,2,-9
7231085779,-14,-19,-1,-8,2,4,2,-5
7231085779,12,13,-17,-34,-28,7,-6,3
7231100877,-2,-8,8,5,12,0,11,2
7231100877,19,35,26,-5,22,-10,-1,10
7231108337,-3,25,-12,37,-10,-6,-6,-7
7231108337,-13,2,-10,-4,8,0,2,-4
7231123943,3,4,3,-10,-17,-14,-8,2
7231123943,0,5,0,37,47,8,5,3
7231124752,-4,-11,-1,-16,-21,-2,0,-3
7231124752,2,3,15,-3,18,6,2,-4
7231146551,4,4,-15,6,14,12,-3,2
7231146551,-6,-6,15,22,-14,-18,-10,-2
7231147237,-10,-25,-9,-28,-17,-7,-4,-7
7231147237,-3,-3,6,13,-2,8,5,0
7231160884,5,0,7,-4,2,1,-4,1
7231160884,-1,14,1,-2,-6,-7,8,3
7231168383,1,10,2,6,-3,12,1,0
7231168383,5,-1,-6,-11,-7,-14,-2,0
7231183986,-1,-5,5,8,14,18,4,-1
7231183986,-1,3,-10,-8,-6,-7,3,-2
7231184727,-3,-9,-10,10,-12,-21,-2,-2
7231184727,0,1,-1,-11,-2,10,2,2
7231206392,0,-5,-12,-5,4,-5,-2,-5
7231206392,2,-3,9,2,-3,1,-7,3
7231207162,-1,-4,-3,3,-13,-5,-2,-2
7231207162,-5,0,0,0,10,15,6,-2
7231220864,2,-1,3,-2,5,1,-3,3
7231220864,10,5,0,2,-4,-6,-9,0
7231228341,5,-11,-3,3,-5,-3,-3,-3
7231228341,-31,0,-11,-13,-11,-7,0,-2
7231243936,-12,-16,5,10,4,-4,-11,-6
7231243936,20,-10,-2,-24,-14,-3,5,9
7231244796,-3,2,3,16,10,1,5,2
7231244796,-3,-13,-7,8,2,3,-7,-7
7231266530,-4,5,-13,-11,-2,-3,1,2
7231266530,-5,-18,-21,-21,-6,8,-1,-6
7231267241,8,5,7,-5,-4,-9,-4,-3
7231267241,14,-6,1,-14,-6,0,-1,6
7231280897,-21,1,5,15,4,-6,5,-3
7231280897,20,17,0,-1,-5,9,-2,0
7231288357,-10,-2,7,6,3,5,0,2
7231288357,15,23,-8,-2,-2,-8,-3,-4
7231303326,-9,-48,-11,-9,-3,-3,1,2
7231303326,-14,17,8,6,3,0,-2,-2
7231310911,-4,15,9,13,0,-1,2,0
7231310911,5,28,-5,-11,-3,3,-3,-2
7231326537,16,40,10,0,5,10,4,2
7231326537,-12,11,-1,13,5,2,3,-4
7231327191,-1,-31,-23,-18,-7,-4,-3,1
7231327191,18,-31,-1,-7,-15,-2,1,7
7231340858,-13,-21,-3,28,15,7,1,-2
7231340858,-16,-4,-4,0,2,-7,-7,-11
7231348339,7,87,6,-8,-8,-4,-3,1
7231348339,0,4,12,-2,-4,0,2,7
7231363247,26,24,-23,-26,-8,-2,2,-1
7231363247,-9,-29,11,10,10,1,-10,-4
7231370899,-13,-16,2,-1,0,3,-3,-3
7231370899,0,43,18,23,-3,-11,-8,-7
7231386531,-8,-29,4,12,4,5,1,1
7231386531,19,25,11,12,12,5,13,9
7231387274,-8,9,-16,-24,-8,-6,-4,-2
7231387274,-24,-30,-4,4,-1,2,-1,-1
7231400939,1,0,6,-7,2,-2,-10,-12
7231400939,8,-24,-16,12,5,-3,3,5
7231408380,26,-1,3,-1,-5,1,-1,2
7231408380,-33,-19,-10,-17,-1,-3,-11,-10
7231423298,5,-5,2,6,-25,-6,-1,2
7231423298,-28,4,5,-10,6,8,-5,-4
7231430777,14,-17,0,6,-14,-2,9,8
7231430777,15,-7,-8,-17,-4,-13,-6,-5
7231439712,3,11,15,7,-6,16,10,6
7231439712,-12,5,-13,-15,19,-9,1,-6
7231445819,-5,-31,2,8,6,2,-12,-4
7231445819,5,1,-1,32,19,-3,6,3
7231460895,-13,-3,-5,-37,-17,-23,0,-4
7231460895,7,-13,-9,-7,-34,-2,-6,-1
7231468366,-4,-10,0,4,-9,17,-7,-2
7231468366,-1,-3,5,16,38,-7,-4,-3
7231483389,6,1,12,24,17,-7,-6,-5
7231483389,-5,-11,-20,-29,29,-27,-4,-2
7231490861,-3,9,0,7,-41,24,1,-3
7231490861,-3,-8,26,-26,-90,14,-6,-4
7231507919,-5,-5,-17,9,56,-5,17,6
7231507919,4,11,3,13,-33,9,5,3
7231508886,-1,9,-2,-18,37,2,-11,2
7231508886,0,-9,-6,-27,-15,-5,-5,-2
7231520858,5,18,9,5,16,7,26,10
7231520858,18,13,-4,12,-28,-3,8,1
7231528398,-5,-6,9,4,9,-25,7,-2
7231528398,-9,-9,-21,47,37,21,8,-1
7231543423,-4,-3,-10,-19,-4,-6,-26,-9
7231543423,5,15,-3,-31,-5,-6,-3,5
7231550899,5,8,27,36,-3,-17,1,-2
7231550899,-3,-4,-21,-45,1,-16,-2,-4
7231566484,-11,-2,7,-33,-52,3,-11,-9
7231566484,-5,-15,-2,117,72,14,9,1
7231567193,0,7,13,-14,-10,-8,-1,0
7231567193,7,1,-11,5,-7,1,1,5
7231580862,1,2,-14,-20,-8,5,-12,-1
7231580862,-11,-1,-1,-21,-32,-6,-8,-6
7231596526,-1,10,-4,-17,11,-11,5,0
7231596526,0,7,14,19,22,9,-2,-2
7231603411,0,1,6,3,-8,1,3,0
7231603411,8,-10,-3,-35,2,-7,3,-4
7231619055,23,-12,-15,14,7,20,14,6
7231619055,-34,-23,-7,-17,-10,-32,-20,-6
7231626410,-21,-19,-7,3,7,9,7,-4
7231626410,-22,-11,10,-5,-15,0,-18,-1
7231627229,8,-7,-14,-6,1,-4,11,-4
7231627229,13,10,4,-3,-3,-4,19,0
7231640754,7,26,2,5,4,-4,-1,4
7231640754,1,-5,2,5,3,3,-10,-7
7231648210,14,23,-1,-7,-9,-11,-1,0
7231648210,-6,6,-6,-9,7,7,-4,2
7231663231,-27,-26,-3,8,-7,-5,-5,-7
7231663231,15,-19,6,-10,-7,1,8,6
7231670664,-11,-30,-4,-5,-2,-4,-11,-2
7231670664,0,-36,-2,-9,-1,9,3,-3
7231686397,21,-1,6,12,1,-3,-8,3
7231686397,-13,2,-12,-20,-16,-6,-5,-3
7231687843,-13,-9,-3,-18,-8,-6,-8,-3
7231687843,-11,5,-1,6,8,6,2,3
7231700708,5,8,3,6,7,5,13,2
7231700708,12,29,12,-3,3,8,6,3
7231708232,-3,8,2,5,4,-1,-3,-6
7231708232,-7,8,-15,-17,-16,-7,-4,-8
7231723198,-5,1,-10,-4,-9,-7,-4,9
7231723198,12,51,34,9,-5,2,0,2
7231730742,-5,-22,-15,-10,0,-2,-7,-3
7231730742,10,38,-5,-12,-3,-3,-2,3
7231746777,-4,-38,-22,9,8,1,-1,-6
7231746777,18,91,32,9,-10,-6,-4,1
7231747078,-17,-69,-16,-5,16,11,3,-1
7231747078,27,18,16,31,8,4,6,5
7231760747,-5,33,-2,-30,-13,-10,-11,-7
7231760747,-27,-16,-18,-16,-17,-11,-7,-7
7231768181,-21,-55,-4,2,3,0,2,-4
7231768181,16,7,2,28,19,19,4,4
7231783186,-7,-22,1,-21,-15,-15,-8,-5
7231783186,-10,10,-13,-2,3,9,4,-1
7231790711,2,38,15,29,6,-1,2,1
7231790711,0,-13,-26,-39,-12,-9,12,5
7231806399,5,37,22,24,-9,-5,-18,-7
7231806399,9,-26,-29,-33,1,-5,1,2
7231807151,-3,21,0,-16,1,6,4,-1
7231807151,-15,-6,4,6,18,7,7,-2
7231820739,16,0,-1,16,-22,4,-1,-1
7231820739,-17,-34,-6,2,12,-1,0,-2
7231828228,3,1,-8,1,-11,-11,-2,-1
7231828228,20,-11,16,-6,-7,-3,-6,-3
7231843252,-16,-32,-13,-7,16,-5,-1,-2
7231843252,-16,-48,-2,27,-12,8,-6,-4
7231850755,17,22,16,13,-2,-3,2,5
7231850755,-5,-5,-3,-17,0,-2,-5,-4
7231874589,11,-5,-8,-25,-17,-24,-5,3
7231874589,19,-1,-12,-4,-6,8,3,-6
7231875308,-37,21,8,-12,-10,14,-2,-4
7231875308,-6,-10,-2,16,11,-3,-3,-3
7231880731,13,27,18,13,24,40,12,8
7231880731,1,-24,-11,-48,-15,-27,-7,2
7231896452,-1,-3,-8,34,11,-29,-7,-7
7231896452,-4,-7,-9,-6,-16,8,-9,-1
7231903266,8,4,4,-3,1,-10,-1,-2
7231903266,-7,-13,8,23,-16,2,5,2
7231910872,4,-7,-16,-12,14,11,-3,-2
7231910872,6,6,4,7,-14,-2,6,4
7231927910,-3,-3,-4,14,12,1,-2,-3
7231927910,-4,5,6,-18,6,-11,-2,-3
7231928843,2,6,-5,6,-15,19,2,2
7231928843,0,7,-4,-20,4,-18,-2,2
7231940863,7,-11,-13,29,-2,5,1,-7
7231940863,-16,4,3,5,-12,0,-5,1
7231948372,-6,-3,-30,-27,-2,-3,1,-3
7231948372,-5,12,31,33,-2,-7,-9,-3
7231963368,4,5,-1,-11,34,14,2,3
7231963368,13,10,-12,14,4,-17,2,2
7231970811,5,8,9,-6,-9,9,-2,0
7231970811,1,16,7,14,1,13,4,0
7231986483,-6,7,12,-5,-11,-14,1,-4
7231986483,5,1,-5,2,11,-2,-10,-4
7231987166,-1,-16,5,-7,-6,18,14,3
7231987166,-2,-24,-6,-6,-1,-22,-15,-4
7232000720,-7,-6,-3,-10,-9,-13,11,0
7232000720,0,-12,4,-3,11,16,34,3
7232008343,-3,5,-3,3,-2,-31,-5,-12
7232008343,3,4,5,1,3,26,-37,8
7232023264,16,-2,-12,-13,-6,-3,17,0
7232023264,-15,-21,-7,3,2,-2,-15,1
7232030794,13,20,10,5,-1,-16,-7,3
7232030794,46,7,-10,-6,-4,6,-18,-1
7232046491,-49,-14,-4,-7,-10,-9,-1,-9
7232046491,-19,-27,4,7,8,22,36,-6
7232047188,12,-13,6,-3,1,-9,-35,11
7232047188,-17,-17,10,7,6,1,14,-6
7232060895,9,-9,14,-3,-18,-6,-14,1
7232060895,0,1,-25,-11,7,6,-10,-4
7232068352,-20,-13,-8,1,3,-8,6,-6
7232068352,15,-19,4,-12,-9,2,10,2
7232083373,-4,-6,6,11,0,-6,0,3
7232083373,-3,-11,10,-6,2,-2,-15,0
7232090872,7,28,-1,2,-1,11,-3,1
7232090872,-7,-6,-19,-11,-5,-12,12,-5
7232106441,1,59,21,10,12,14,-4,5
7232106441,35,-27,15,16,-9,-9,-17,0
7232107226,-33,35,-50,-27,4,-4,-10,-14
7232107226,-29,-47,-16,7,-8,-6,8,-10
7232129030,7,43,6,0,-4,0,1,10
7232129030,23,66,36,15,4,3,0,-2
7232129704,26,-50,-22,-15,-7,1,14,12
7232129704,-4,39,-8,-7,-4,-7,19,-6
7232151483,-39,-17,-36,1,-12,-6,-39,-24
7232151483,-4,-3,-6,-32,20,13,9,6
7232152189,-33,-11,-16,-5,4,6,3,-1
7232152189,-4,6,24,51,9,-8,-5,2
7232166504,19,24,-9,-49,-2,1,7,12
7232166504,24,38,38,15,-15,-8,-8,-7
7232167193,-15,17,-38,-53,-35,-18,-18,-11
7232167193,28,64,46,-8,-4,1,22,17
7232180846,-7,-31,-19,-29,20,9,1,5
7232180846,-15,-51,-8,1,7,-2,-20,-5
7232188341,7,1,-35,30,-6,-2,2,-4
7232188341,5,22,-12,-47,-10,0,-4,-6
7232203179,5,20,30,18,6,-4,1,6
7232203179,-39,-54,-20,4,-28,-11,6,-4
7232210812,4,53,31,26,32,-3,2,5
7232210812,-21,20,-7,7,-18,-17,-22,-5
7232226234,17,62,-29,-16,-15,38,4,-19
7232226234,11,58,-15,9,47,6,5,1
7232234043,-1,-18,42,3,-7,4,-7,5
7232234043,-8,-64,-4,-7,7,-14,13,-1
7232240835,-11,-86,1,7,-11,-5,-4,0
7232240835,1,-34,-4,8,-35,-8,-1,-4
7232248328,-4,-50,36,17,33,-7,5,-5
7232248328,10,-54,-18,-4,12,36,5,2
7232264635,23,-14,-8,-6,-17,-20,-19,6
7232264635,-27,-11,9,41,4,-7,19,-4
7232271633,11,-8,-10,-48,4,-9,-29,-2
7232271633,-18,-3,-5,-5,7,4,12,1
7232285727,-1,-24,5,31,14,3,14,4
7232285727,15,14,-15,-17,8,-17,-7,3
7232293943,9,25,31,1,-17,4,-3,-3
7232293943,-18,-7,-9,-29,-6,-24,-17,-11
7232300880,-1,-2,16,30,16,38,7,0
7232300880,-13,-10,-18,-24,26,-16,-3,0
7232308413,12,19,7,21,-48,-27,15,0
7232308413,-10,23,-20,-34,22,40,-20,-3
7232323241,5,13,12,51,18,-8,20,5
7232323241,-2,14,-15,-56,-8,-11,-6,-2
7232331519,1,6,7,3,-22,4,2,-1
7232331519,-1,0,2,-1,8,2,4,-1
7232345874,8,-15,8,2,-18,-8,-6,1
7232345874,0,6,-17,7,20,21,-4,1
7232354036,2,-13,14,73,15,2,10,2
7232354036,1,-5,-36,-9,-3,-7,0,0
7232369081,-10,-18,-1,-33,3,-3,-4,-7
7232369081,14,26,-3,-14,-21,-2,-6,7
7232369657,-2,-7,-4,14,26,17,14,3
7232369657,1,-7,11,29,-3,-5,-5,-1
7232383396,-15,-10,7,-3,-10,-17,-4,-8
7232383396,-1,14,1,-4,-20,-5,-15,-4
7232399091,1,3,8,-17,5,-4,13,1
7232399091,-1,7,5,13,-10,2,-22,-2
7232405836,5,-3,-6,-10,1,3,23,2
7232405836,-13,-13,14,14,-5,3,-4,-3
7232413978,-1,-14,-7,-7,6,18,27,5
7232413978,4,4,4,3,-8,-19,0,3
7232428878,-9,10,-4,-8,-6,-15,-24,-5
7232428878,-5,-25,-17,0,0,9,17,1
7232429840,1,-16,0,-6,-2,-4,-4,-5
7232429840,-5,-16,3,1,-8,-5,-8,-2
7232443350,2,-23,-3,-3,4,-9,0,0
7232443350,8,-1,1,3,-4,-1,2,0
7232451479,-28,-4,-5,-12,-2,19,6,-4
7232451479,9,3,3,5,-2,-9,25,4
7232465833,-27,-17,-4,-2,-1,-9,-3,-1
7232465833,5,-10,-4,2,-1,5,-4,0
7232473984,5,3,1,-9,-4,-4,-7,2
7232473984,17,-16,10,5,1,0,6,-2
7232490314,-6,-15,-10,-4,-2,-1,-1,-2
7232490314,-7,5,3,-1,-1,-1,-4,0
7232491123,11,-1,5,1,1,3,-11,-7
7232491123,-18,20,14,13,-6,4,-1,6
7232503332,31,56,-14,-10,3,1,-1,6
7232503332,4,-3,-8,-4,-4,0,-8,-4
7232511475,-22,19,8,0,-2,2,-4,2
7232511475,11,-28,41,30,-3,-6,-4,-2
7232525852,-15,35,-14,-25,15,2,4,1
7232525852,-4,-33,-6,1,-14,-7,-2,-6
7232534020,49,67,13,10,9,0,-4,11
7232534020,-39,-36,0,11,-2,-4,-3,-12
7232548998,25,-20,39,-17,-8,6,-1,6
7232548998,-19,-19,-10,-10,-11,-4,-1,-9
7232549668,-27,5,-14,17,17,0,-10,-6
7232549668,31,34,84,-6,-24,-9,1,3
7232563334,22,-48,-8,-5,-7,-6,-26,-1
7232563334,-20,102,41,2,-13,-8,-9,4
7232571480,29,35,-8,-9,-9,-4,4,2
7232571480,-53,-42,12,30,20,14,-1,-3
7232585822,7,90,13,35,-1,3,9,-4
7232585822,8,-19,-11,30,27,16,5,2
7232594050,-36,-3,-27,-17,-19,-18,-22,-7
7232594050,15,31,-36,-36,-4,-5,2,9
7232608974,1,13,-6,18,-27,-11,0,-4
7232608974,10,-15,36,8,28,7,-8,1
7232609648,14,-15,22,16,-4,6,9,1
7232609648,-8,28,-30,7,-9,-23,-17,-15
7232623180,-14,1,-32,-86,-6,9,40,4
7232623180,-18,33,-11,-8,7,2,-5,-4
7232631531,1,-36,7,33,12,18,5,1
7232631531,1,-25,-22,-9,-11,5,8,-3
7232645807,-9,-75,-30,-26,23,-21,-24,-11
7232645807,22,-15,9,-7,-55,-5,-4,5
7232654070,-18,-58,0,27,2,6,15,7
7232654070,-7,-29,-10,-32,44,-3,-14,-7
7232668919,-1,-2,23,31,20,20,-7,-4
7232668919,-14,-45,-29,-25,1,-17,2,-4
7232669745,5,-16,-1,-28,-44,-14,-12,-10
7232669745,8,21,-22,36,9,5,3,1
7232683252,-16,-24,-6,-8,25,-4,-4,-2
7232683252,-1,4,-14,-9,-23,3,12,-4
7232691506,-15,-13,4,-13,6,-3,-7,-7
7232691506,24,30,6,4,-15,-2,4,8
7232705799,-17,-3,-6,13,-4,-3,-1,-7
7232705799,12,-2,-8,-10,2,9,-9,1
7232714069,13,23,-6,2,16,-10,-5,2
7232714069,-17,21,5,-24,-30,-12,-7,-12
7232728965,-20,-24,15,55,1,1,-4,-5
7232728965,6,34,-7,-44,20,9,5,4
7232729630,2,21,6,-29,12,5,3,2
7232729630,6,7,-30,-37,-11,-2,-1,1
7232743329,-2,11,15,30,8,9,4,2
7232743329,2,-1,19,51,1,-17,-4,-1
7232751380,-8,-30,-11,-22,0,1,-1,-4
7232751380,5,-14,-11,-19,-9,-2,-2,-1
7232765631,9,3,-2,4,-28,-10,-5,2
7232765631,-7,-9,5,2,1,1,1,-4
7232773889,2,-1,-7,-7,-1,-3,-6,-1
7232773889,8,11,12,1,2,5,3,6
7232788942,0,-8,-24,-23,-9,-2,0,-1
7232788942,4,3,5,21,12,4,5,4
7232789768,-7,-12,-6,-13,-7,4,-3,-4
7232789768,-9,-2,6,7,3,-6,-7,-4
7232803262,3,0,-2,-3,-5,3,3,3
7232803262,-4,-3,-6,-12,-12,-6,-6,-5
7232811468,3,7,7,5,-8,-29,-10,-1
7232811468,10,-11,-15,5,7,28,1,1
7232825792,-6,-5,-1,1,0,-13,-7,0
7232825792,-3,-15,5,0,-3,6,7,5
7232833836,-5,-7,-4,-1,-3,-7,-2,-8
7232833836,-5,8,1,9,8,-3,7,1
7232848930,20,6,2,-5,-6,-4,-3,4
7232848930,4,19,6,1,4,4,2,-1
7232849725,-23,1,-1,-3,-1,-4,0,-3
7232849725,10,-6,-8,3,11,7,9,5
7232863125,-13,-1,1,-6,-13,-19,-6,-7
7232863125,16,7,-3,6,11,27,5,1
7232871494,0,6,6,0,0,7,2,4
7232871494,-2,-10,-1,0,-12,-9,-8,-5
7232885745,8,-5,0,-9,-4,4,1,4
7232885745,-4,-20,1,17,2,-11,0,0
7232893961,2,-3,-8,-13,-4,-3,-4,-1
7232893961,1,-5,3,1,3,5,0,-3
7232908872,-9,5,-2,-13,-9,-6,-2,-1
7232908872,-2,6,0,9,1,-5,-3,-2
7232909774,-1,0,12,10,6,10,4,-1
7232909774,8,10,-11,-18,-1,-9,-1,1
7232932193,-5,0,1,13,0,5,2,2
7232932193,6,10,4,0,-10,-9,-5,-1
7232933002,-10,-12,-22,-18,-1,1,-3,-6
7232933002,-21,0,1,20,5,-2,-3,-6
7232954650,-5,1,-8,-11,-5,-1,-3,-1
7232954650,18,8,1,-9,-3,-1,-2,3
7232955363,8,-3,6,2,-5,-1,2,0
7232955363,-27,-3,6,7,8,6,5,-1
7232970314,-8,-12,1,11,2,10,1,-3
7232970314,9,17,-13,-23,-6,-11,-4,1
7232972410,-1,8,7,7,-4,-4,-6,0
7232972410,-7,11,-2,-1,6,6,8,3
7232984942,9,9,12,13,-6,0,-5,-3
7232984942,7,22,-29,-24,12,2,2,3
7232994117,-5,-7,-9,5,-3,-3,-8,-4
7232994117,-9,-40,2,-10,-10,-4,-5,-4
7233005738,6,-59,-8,-10,-8,-2,-1,-3
7233005738,-12,39,13,18,2,1,1,4
7233013909,21,12,-2,8,-4,-2,27,8
7233013909,-2,20,-11,-1,3,-2,-27,-2
7233028208,-21,-14,1,2,15,8,6,-5
7233028208,-24,3,16,7,-6,-1,3,1
7233037212,17,10,9,6,3,5,-3,-2
7233037212,11,16,10,0,-9,-5,14,4
7233043168,32,13,-2,-8,1,8,1,11
7233043168,-19,-26,-8,2,11,-1,-4,-7
7233052119,2,-12,7,14,15,5,0,-1
7233052119,4,16,9,3,7,-2,2,4
7233065776,2,22,-16,-20,-17,-2,-1,1
7233065776,-4,-39,1,5,8,-8,-3,-2
7233074618,6,17,3,-4,-14,8,-3,-4
7233074618,4,-14,4,-9,14,-11,-3,-3
7233088134,-17,2,-6,2,-15,-8,-3,-5
7233088134,7,-10,3,7,13,7,2,3
7233098634,-3,-11,0,-7,11,-4,-1,0
7233098634,3,-13,-14,-8,16,0,-4,-2
7233103225,-6,-2,14,8,-23,-11,-4,-2
7233103225,15,8,2,3,32,20,13,3
7233112192,-15,-11,-4,1,7,-1,-1,0
7233112192,-7,-23,2,28,-14,15,6,1
7233125805,15,17,-8,-32,0,-3,-3,-1
7233125805,13,3,11,10,-40,-24,-9,-2
7233134637,-41,-16,-24,-10,31,11,1,-7
7233134637,20,18,-13,-21,-33,-18,-5,5
7233148326,-23,-12,0,0,3,0,-4,-9
7233148326,17,-2,18,18,-4,16,9,2
7233157172,24,24,7,-12,3,-9,-7,-1
7233157172,-25,-10,13,-6,-7,1,-7,-8
7233163291,-5,-5,-6,13,7,-8,-6,-6
7233163291,-5,-3,1,2,-17,-10,3,1
7233172150,12,1,6,-2,-8,-11,-9,-1
7233172150,5,-8,-13,-19,-6,3,7,2
7233185815,2,9,-2,20,19,1,-6,-1
7233185815,-13,-17,-2,-8,-10,7,6,-6
7233194727,-6,0,19,28,-6,-9,-5,2
7233194727,9,9,-13,4,6,12,3,3
7233208286,-3,-6,-17,-15,7,-9,-3,1
7233208286,-3,3,-6,-19,-15,-2,-10,-5
7233217220,-4,-9,-4,10,1,8,4,4
7233217220,-11,-10,0,-13,-8,-19,-5,-8
7233232155,6,14,7,2,0,12,6,3
7233232155,-9,-8,3,-2,12,6,11,-4
7233233630,-9,-9,-27,-33,-27,-22,-58,-5
7233233630,13,7,-6,4,7,14,24,4
7233245842,2,9,10,7,7,12,21,1
7233245842,-12,-8,-2,-3,0,-12,13,0
7233260823,-16,-14,-1,-10,-7,-13,1,-10
7233260823,3,-5,3,5,3,11,-48,4
7233268283,50,1,-2,5,4,3,52,10
7233268283,-30,1,-6,-7,-2,-10,-16,-1
7233277162,-5,-14,3,-2,-4,8,27,3
7233277162,-32,-15,-4,6,1,4,15,-17
7233283232,3,0,13,3,1,4,-24,1
7233283232,15,5,-5,-3,-1,-9,-2,3
7233292226,20,1,-1,-2,-1,-2,4,1
7233292226,-11,-11,3,4,-4,-1,5,0
7233305611,-6,-15,3,-4,-5,-1,-18,-5
7233305611,-13,-24,-13,-4,-3,-14,-3,-6
7233314618,1,19,9,3,-3,14,-3,4
7233314618,9,11,-1,-1,-1,-6,-5,0
7233328109,-12,9,-2,2,-2,-6,-2,-1
7233328109,-2,-3,-6,-1,-3,4,-12,-4
7233337116,-3,-2,6,7,-3,7,9,1
7233337116,18,4,-8,-8,-6,-10,1,3
7233343090,-9,-12,0,-8,5,-3,-7,-3
7233343090,-7,17,-5,2,-2,3,-6,-3
7233352242,22,16,21,4,-1,-3,2,2
7233352242,-19,21,-31,-9,-6,-7,-3,-10
7233367191,-30,31,21,-2,-1,3,-6,-7
7233367191,-7,-76,-37,-2,6,-1,-6,-6
7233374776,11,17,1,8,10,7,12,12
7233374776,35,72,52,44,-1,-5,-2,8
7233388214,-15,-54,-23,-47,-4,-3,4,0
7233388214,20,45,7,16,-6,-1,-8,1
7233397128,-4,-40,-5,-5,-3,0,-1,-5
7233397128,-1,-19,7,19,-4,-5,-11,3
7233412063,-8,36,11,-14,5,-9,-5,-7
7233412063,-27,-38,-24,-26,1,8,-1,-1
7233413562,3,41,-12,-10,-7,-2,2,1
7233413562,12,16,9,-6,1,0,-4,1
7233425784,-23,-6,11,9,-8,-2,-6,-5
7233425784,22,20,-12,-30,-11,-3,1,-1
7233434742,10,36,-9,23,21,9,19,4
7233434742,7,25,9,-24,-14,-11,-14,2
7233448159,-3,-2,-4,25,8,-11,6,-2
7233448159,1,14,6,10,2,25,-9,-6
7233457347,-16,-4,2,-16,-2,-17,-3,-5
7233457347,-3,-59,-36,-26,-9,-4,-4,-5
7233472119,23,16,4,6,-9,9,4,6
7233472119,6,10,6,-5,-12,-18,2,3
7233473733,-17,-49,-5,3,8,-8,-11,-11
7233473733,5,-24,2,8,5,-3,9,0
7233485720,4,4,-12,-10,-6,-2,-8,2
7233485720,-10,-21,18,18,5,5,7,2
7233494685,25,-4,-2,-22,-7,8,-9,3
7233494685,-20,-4,-6,8,-11,-10,8,3
7233508101,-4,-26,0,5,35,13,2,-4
7233508101,7,12,19,34,3,0,-3,-2
7233517162,-21,-29,-19,-24,-16,0,-2,-5
7233517162,0,0,-17,-5,2,-13,-6,-4
7233539687,12,3,11,-10,-27,-5,-5,0
7233539687,-4,8,-4,15,16,5,3,0
7233541148,-2,24,12,7,21,-4,-3,-5
7233541148,-13,-8,-10,-35,-4,8,5,-5
7233545784,5,4,-11,28,-9,-6,-6,1
7233545784,3,5,2,-23,-1,-2,0,3
7233554666,-12,-15,-14,15,-22,-6,-5,-2
7233554666,15,18,15,38,24,16,10,13
7233568276,-9,-8,3,-8,5,2,1,-1
7233568276,12,8,2,10,8,4,6,6
7233577168,3,-1,2,17,8,3,1,1
7233577168,-7,-2,1,-22,-6,-9,-8,-7
7233592063,15,22,-24,-21,-17,-3,-1,2
7233592063,-5,7,-2,6,10,5,5,2
7233593646,11,14,1,4,6,4,5,7
7233593646,-6,-5,12,6,3,10,6,-1
7233605755,0,-15,-26,-9,-7,-7,-10,-6
7233605755,0,3,-4,-24,-17,-27,-15,-5
7233614682,-10,-8,2,-8,0,14,6,-2
7233614682,-19,-17,-4,2,1,3,0,-5
7233628244,5,2,0,0,0,-12,-11,0
7233628244,-2,-3,2,1,0,7,-3,1
7233637139,8,19,4,-1,-8,-4,-6,-1
7233637139,6,4,-4,2,1,-1,0,-1
7233652180,-9,-8,5,8,0,-1,-1,-1
7233652180,4,0,-5,-17,-13,-11,-1,-10
7233653652,-3,17,3,1,-5,-6,-15,1
7233653652,6,-12,-3,0,3,1,-7,0
7233665809,-13,-12,4,2,2,4,0,-4
7233665809,-10,-23,-6,-8,-6,-6,-2,-12
7233674675,-7,-10,-2,-1,-2,-4,-9,6
7233674675,-5,-14,6,1,-1,-4,-1,-3
7233688263,10,-6,1,2,-1,-4,-1,4
7233688263,7,-10,-2,-5,-5,-3,2,-1
7233697097,-14,-19,-2,0,1,-2,3,-5
7233697097,12,-4,-3,-2,2,3,-11,-1
7233712111,-1,12,14,11,3,-1,9,6
7233712111,-12,-5,5,0,0,3,-6,-1
7233713579,11,8,-6,-7,-3,1,5,2
7233713579,-8,2,-3,0,2,-4,-8,-4
7233725786,1,7,2,1,0,8,14,-1
7233725786,5,3,1,1,1,-4,-1,6
7233734651,2,-11,-4,-6,-4,-6,-1,-6
7233734651,-4,5,3,-1,-3,-3,5,-2
7233748288,-20,-5,3,3,0,2,-6,-2
7233748288,7,-3,3,3,0,2,7,5
7233757122,-19,-6,-1,-3,-6,-3,-2,-8
7233757122,17,4,-4,4,1,7,4,-4
7233772029,12,7,-8,-18,-7,-5,2,7
7233772029,-15,0,-2,2,-2,-5,-3,-3
7233773638,-16,2,3,17,6,2,5,-4
7233773638,5,0,4,8,-1,-3,-4,1
7233785817,22,8,-7,-30,13,9,3,0
7233785817,-17,-2,-19,4,-4,2,0,-3
7233794641,-8,-12,-13,-23,-1,-4,-5,-6
7233794641,-15,-1,-5,3,-16,-4,0,4
7233808315,20,29,42,37,6,-5,1,0
7233808315,6,6,-22,-29,2,-1,-5,3
7233817126,8,1,7,21,-5,-1,-1,-1
7233817126,-5,-8,-7,-14,7,4,8,1
7233832120,10,0,0,6,-15,-5,-6,4
7233832120,-6,38,19,10,10,4,0,-8
7233833598,7,-21,-3,5,7,7,2,3
7233833598,-3,13,9,-3,-6,-4,-7,-8
7233845641,6,17,-8,0,2,-1,-9,2
7233845641,-30,-22,-5,-18,-7,-6,-10,-11
7233854668,37,22,5,3,2,5,4,12
7233854668,-15,16,15,27,-2,1,7,4
7233868295,16,47,-10,-20,-3,1,1,0
7233868295,-25,-20,-16,-15,-1,-6,-5,-7
7233877145,-15,-33,-14,-15,-6,-5,-8,-11
7233877145,4,-20,-13,4,5,1,3,1
7233892133,-22,-25,0,14,-13,-7,-5,-9
7233892133,10,-37,-9,-6,-6,-4,-1,6
7233893613,4,0,9,4,7,8,6,-5
7233893613,-2,-16,-10,-12,8,-2,0,4
7233905656,-1,-49,0,19,7,5,-1,3
7233905656,19,8,13,8,8,11,-2,0
7233914642,-8,5,6,7,-3,-10,1,2
7233914642,5,15,7,-2,0,1,-1,-4
7233928289,-11,-23,-11,-16,-9,-7,-5,-10
7233928289,7,9,-2,-7,-23,-11,-3,4
7233937115,4,19,-1,-4,4,6,0,1
7233937115,16,4,-10,-39,5,2,5,2
7233952112,-34,-18,-14,20,10,4,2,-9
7233952112,-3,7,2,19,8,-5,-4,-8
7233953622,24,19,-17,-37,-16,-5,1,3
7233953622,-36,-38,-3,-13,-9,1,-2,-8
7233965787,8,2,2,-8,-12,2,0,-2
7233965787,-21,-6,24,32,2,4,10,1
7233974594,-6,0,-16,-14,-3,-3,-5,-2
7233974594,-1,9,-1,-18,-2,-12,-10,-11
7233988257,0,20,7,-15,-10,-6,0,1
7233988257,21,6,-2,3,-7,-1,2,5
7233997185,-6,4,7,13,-6,-10,-5,-2
7233997185,-2,-1,-17,-16,11,9,4,2
7234012047,-3,-8,-10,-9,-7,-5,0,0
7234012047,1,-7,13,24,6,-5,-5,-3
7234013600,-19,-21,1,-18,9,11,4,-3
7234013600,5,13,-5,2,-8,-6,-3,-2
7234025761,-5,-14,10,26,20,9,4,3
7234025761,-8,-13,-15,-29,-4,-1,1,-2
7234034639,-2,-11,7,20,-9,-5,-4,-2
7234034639,-4,-15,1,23,-3,0,3,1
7234048298,4,5,-6,-15,16,7,9,2
7234048298,16,8,8,9,1,1,4,8
7234057098,-14,3,3,-1,-8,-7,-3,-4
7234057098,12,10,-7,-12,-6,-4,-3,3
7234072067,-8,7,11,8,5,3,0,-5
7234072067,17,2,-3,4,9,9,7,6
7234073601,-12,10,-6,-4,1,2,-1,-2
7234073601,12,16,7,12,-1,-8,-9,1
7234085788,0,-2,-5,-2,-8,-8,-4,4
7234085788,-6,8,1,-11,-4,2,5,-4
7234094621,-8,-18,-2,2,1,-3,-6,-4
7234094621,3,-20,3,7,0,2,-1,-2
