timestamp,emg1,emg2,emg3,emg4,emg5,emg6,emg7,emg8
12052520659,-1,1,-3,-4,7,0,-2,0
12052520659,-5,-3,2,-7,-5,-4,-4,-5
12052521365,3,0,-2,0,0,-2,-1,0
12052521365,0,2,1,-1,-2,-2,0,0
12052522271,-1,0,-4,-12,-7,-1,-2,0
12052522271,0,3,-4,6,6,3,0,2
12052523077,-3,-3,2,-11,-6,2,-2,-3
12052523077,3,-2,6,17,-9,-5,1,1
12052534403,-5,-5,-8,1,21,4,3,-3
12052534403,0,-4,-4,-7,-7,-3,-3,-3
12052542496,-2,0,-7,0,-3,-1,-2,-3
12052542496,-2,1,-4,-8,-4,-3,-5,1
12052549406,-3,-3,10,4,-15,-7,-4,-3
12052549406,2,1,-4,-7,5,4,4,2
12052563706,-1,1,0,6,5,-3,-4,0
12052563706,-1,-2,-6,-6,0,4,-2,-3
12052573124,-6,0,1,5,-3,-3,-2,-4
12052573124,2,0,0,-4,-6,-5,-3,-1
12052578738,1,-3,2,0,-3,-3,-2,1
12052578738,0,1,-1,-5,4,3,-1,1
12052595146,0,-2,-4,7,2,-1,-1,0
12052595146,-2,-1,-5,0,-4,-3,-2,0
12052602365,-1,2,8,1,-3,0,2,0
12052602365,-1,-4,-2,-8,6,1,0,-4
12052641907,-5,-3,0,-2,-2,-1,-4,0
12052641907,1,1,-3,0,2,-1,0,-3
12052642738,1,1,-3,-8,-10,-4,-3,-2
12052642738,-2,-2,-1,2,5,-1,-2,-2
12052643563,0,-1,-2,0,3,-2,0,-1
12052643563,-3,-1,0,-6,-3,-4,-4,-2
12052645887,0,0,-2,-5,-4,-2,-2,0
12052645887,2,-1,-4,1,-7,-2,0,2
12052654999,-2,0,1,-6,-2,2,2,-1
12052654999,-9,-5,5,3,1,0,-2,-2
12052660960,2,1,0,0,-2,0,2,-1
12052660960,-2,-2,1,0,3,1,0,-1
12052669970,2,-1,-5,-3,-3,-1,-2,-1
12052669970,-3,-1,-2,0,-1,1,0,-2
12052683542,-4,-3,-1,0,-1,-3,-4,-2
12052683542,4,4,5,1,0,1,0,0
12052692460,-2,-3,0,-3,-2,-1,-1,-1
12052692460,5,0,-8,-2,-3,-2,-4,-2
12052698417,-7,-2,5,4,0,-1,-1,-3
12052698417,-7,-5,-1,0,7,-2,-2,-2
12052714914,2,3,5,2,-1,-2,-1,1
12052714914,1,-1,0,-4,-2,-2,1,2
12052721015,-6,-1,-6,10,2,0,0,-3
12052721015,4,2,-5,-4,-5,-2,0,0
12052729965,-1,0,4,5,-1,-3,-3,-3
12052729965,-6,-4,-4,-8,-1,1,1,-4
12052743414,1,-3,0,-5,1,1,-1,1
12052743414,-6,-3,-1,-2,0,0,-2,-1
12052752497,4,0,-8,-3,-2,-1,-2,-2
12052752497,3,6,2,2,-3,-4,-2,1
12052758532,-2,3,0,-1,2,-1,-2,-2
12052758532,9,5,-3,-3,-4,-1,0,0
12052774894,3,-3,0,0,0,0,-5,7
12052774894,-21,-9,-3,-1,-2,-5,-2,-11
12052780943,-3,-5,0,-1,-1,0,6,3
12052780943,-4,-3,0,-2,-5,-8,-12,-2
12052797407,0,7,4,-5,-8,-2,13,1
12052797407,13,2,-7,0,-1,1,-16,-14
12052803501,0,-6,9,4,8,9,-1,-11
12052803501,-2,2,4,-4,-1,4,4,3
12052812426,1,-4,-37,3,1,-6,-3,-5
12052812426,-4,-1,29,0,-1,-3,5,11
12052818483,2,6,7,-1,-5,-2,-7,2
12052818483,2,-4,9,4,-2,0,7,0
12052834864,-12,1,28,6,3,1,-21,0
12052834864,5,-3,-47,-10,-1,2,10,1
12052840993,18,-3,-29,-1,-1,-4,-2,4
12052840993,-20,3,12,-4,0,1,0,-1
12052857370,-6,-14,-23,-4,-5,-2,6,-2
12052857370,-4,-9,26,-5,-1,-3,-2,1
12052863543,-4,-1,14,6,-3,-2,-4,2
12052863543,9,-3,-29,-11,-6,-4,-3,-3
12052872408,-1,14,27,7,2,3,2,-6
12052872408,-9,0,-21,-2,-2,0,-3,0
12052878454,6,1,-3,-27,-8,-3,1,-1
12052878454,11,0,8,20,5,-1,-3,1
12052894907,0,-3,-11,-11,-2,0,1,2
12052894907,1,5,23,-3,-5,-11,-8,4
12052900922,-1,5,-12,5,4,7,13,-2
12052900922,-13,-6,-11,-12,-12,-10,-3,-1
12052917383,-1,-25,12,23,15,2,18,-8
12052917383,-5,12,-14,-19,-2,19,-27,21
12052923574,14,2,-21,-13,-13,-11,10,-9
12052923574,8,-15,38,21,14,3,-12,-22
12052932379,-6,42,-8,-13,-4,-10,-6,4
12052932379,-1,-10,12,15,-2,3,-35,-5
12052946007,-21,-12,0,-6,-1,1,7,16
12052946007,8,-1,-10,-1,-6,-3,1,8
12052954820,3,-6,-14,-5,-11,-13,-3,-15
12052954820,-15,1,17,-2,-2,6,13,0
12052961032,1,7,17,26,13,3,-8,6
12052961032,11,9,-30,-17,-2,1,5,-9
12052975978,-22,-9,-14,-10,13,2,-2,4
12052975978,10,-9,-22,-11,-8,-5,7,-8
12052983443,-9,-10,18,33,-3,-5,-3,-4
12052983443,-5,-1,-4,-23,12,-1,7,1
12052992468,11,5,2,-18,-17,1,-5,7
12052992468,2,-8,-13,2,0,-8,8,-5
12053005916,-6,8,7,7,-3,-4,-5,-8
12053005916,-5,-5,-6,16,8,1,-5,7
12053014847,1,-9,-1,-32,-14,1,-6,0
12053014847,6,1,2,25,14,0,14,2
12053020859,-3,3,-1,-10,-2,-1,-6,-7
12053020859,-6,3,-6,-4,-4,-1,-2,1
12053035849,2,-2,6,0,-8,-2,-3,-1
12053035849,-1,-8,-8,5,3,2,13,-6
12053043344,1,3,-10,-16,-3,-4,-6,1
12053043344,-4,-10,8,-4,-11,-4,-6,2
12053052363,4,4,5,11,-5,6,3,-2
12053052363,5,12,28,9,16,4,5,2
12053065838,3,0,-22,-12,2,1,-3,0
12053065838,-7,-1,-4,-12,-7,-4,0,-1
12053074859,-3,-13,-7,6,-1,-3,-4,-5
12053074859,-7,0,10,1,-12,-5,2,-3
12053080839,-1,-7,-12,-10,0,-2,-1,-2
12053080839,-3,-2,-7,2,-3,0,3,-1
12053089892,7,7,37,18,3,1,-4,2
12053089892,3,3,-2,-4,3,4,5,0
12053103321,-4,-3,5,-3,2,-2,-5,-4
12053103321,-8,-4,-17,-5,-11,-3,-3,-3
12053112370,-1,-7,-13,-7,-1,-1,-2,0
12053112370,-3,-1,-8,0,-4,-6,-1,-1
12053125873,3,2,2,5,7,3,0,-1
12053125873,4,2,-1,-7,-3,-3,-2,1
12053134856,-1,-2,3,1,-6,-3,-2,-1
12053134856,4,-1,-5,1,8,-1,-1,0
12053140841,-6,-7,-5,0,-3,2,-2,-3
12053140841,0,3,8,-8,4,6,2,1
12053149912,0,5,14,14,5,-1,-2,-1
12053149912,-1,3,-9,-2,-10,-5,-1,-3
12053163318,-4,-9,-8,-13,-6,-5,-2,-1
12053163318,0,2,6,13,1,0,1,-1
12053172383,0,-3,-10,-4,4,2,-1,0
12053172383,-2,0,4,-1,-2,-1,0,-2
12053185866,0,2,11,4,-1,-2,-3,-1
12053185866,-4,6,3,2,-3,-1,0,-2
12053194843,5,-3,-6,-6,-11,-5,-4,0
12053194843,1,-5,-7,8,12,6,6,0
12053200845,2,-1,2,-7,-4,-2,0,0
12053200845,-2,-5,-2,-2,-8,-3,-2,2
12053209970,-6,-2,1,9,10,4,0,-2
12053209970,3,0,-3,-11,-8,-3,-3,-3
12053223474,1,0,1,6,-1,2,1,0
12053223474,0,8,-4,-6,-8,-2,-6,-2
12053232457,-1,-3,-5,-3,10,4,2,1
12053232457,-3,-5,-3,-12,-9,-7,-1,-1
12053245958,-4,-4,-3,5,-1,1,0,-1
12053245958,-4,-6,0,11,4,0,-1,-4
12053254956,-1,-2,-7,-13,-1,2,0,0
12053254956,1,1,-4,-8,7,1,-1,0
12053260861,-2,2,-1,4,-5,-5,-3,-1
12053260861,2,-3,0,16,2,-3,-3,-2
12053275968,-2,2,-11,-7,-4,0,0,-2
12053275968,-10,-8,6,10,-6,0,-3,-3
12053283440,3,-4,3,4,6,0,0,-2
12053283440,7,-2,-6,-11,2,2,-1,2
12053292357,1,1,-6,-3,-1,-3,-1,-1
12053292357,-2,4,-4,-4,-11,-5,-2,-2
12053305932,-5,-3,8,6,1,3,0,-3
12053305932,-2,-7,-13,-10,3,1,3,-1
12053315000,-1,-2,-2,4,-2,-3,-2,1
12053315000,2,-1,-2,1,-2,-1,-3,-1
12053320802,-1,1,-1,-7,-8,0,-2,0
12053320802,-3,-3,0,0,-1,0,0,-1
12053337361,-2,-4,4,2,-2,-3,-1,-2
12053337361,4,1,-1,7,1,-6,-1,1
12053343533,-1,-4,-1,-16,-7,0,-3,-1
12053343533,-1,1,2,4,5,3,-1,0
12053352356,0,2,-2,-1,-2,-1,-1,-3
12053352356,0,-2,1,5,-1,1,-1,1
12053365869,3,2,-5,1,1,-5,-1,1
12053365869,-4,1,4,-2,-8,-3,-3,-2
12053374928,-4,-3,1,2,-1,0,-1,-3
12053374928,1,2,2,-17,0,-1,1,1
12053380999,-1,-1,-6,9,0,-2,-2,-1
12053380999,-3,-2,4,0,4,-1,-1,0
12053395883,0,-2,0,12,2,0,-1,1
12053395883,0,-2,-1,-6,-4,-2,-2,-1
12053403313,0,0,0,-9,-2,-2,-1,-1
12053403313,-1,-3,2,2,-6,-4,0,-1
12053412354,-4,-2,-5,-2,0,1,1,-3
12053412354,5,2,3,-2,2,1,-1,-1
12053425873,2,1,-2,-8,-2,0,1,1
12053425873,-5,-4,0,2,-1,-2,-3,-3
12053434832,-5,-7,-2,-1,-8,-2,-3,-3
12053434832,-2,0,-6,8,3,1,0,0
12053440846,-2,1,8,2,1,-3,0,-2
12053440846,1,1,-4,-2,7,2,3,0
12053455866,1,1,1,-11,-6,-5,-4,2
12053455866,-1,-2,-2,11,-3,-1,-2,0
12053463362,0,1,-7,-5,2,-4,-2,-2
12053463362,0,2,-2,0,-8,-2,0,-2
12053472382,1,-2,1,-6,1,0,0,0
12053472382,2,4,0,-12,-4,-2,-1,-1
12053485842,-1,-1,0,2,5,2,2,1
12053485842,-2,0,3,3,-4,-3,-3,-2
12053494853,3,3,-5,-16,1,3,2,2
12053494853,-5,-3,-4,4,3,-4,-1,-4
12053500874,0,0,-2,-6,-7,-1,-1,-2
12053500874,-2,0,0,-1,2,-4,-4,0
12053515853,-2,0,8,12,5,0,1,-1
12053515853,-3,-8,-10,-8,-3,1,-1,-1
12053523369,-3,-3,-3,8,-1,-3,0,1
12053523369,9,2,-1,-7,-2,-2,-1,2
12053532379,1,4,-2,11,1,-2,-1,-1
12053532379,-6,-2,0,-17,-4,0,-2,-3
12053545859,-3,-3,8,0,-4,-1,-2,-1
12053545859,-2,0,-2,-4,-2,2,0,-4
12053554853,-2,-4,0,2,0,0,-1,-2
12053554853,2,1,0,7,0,-3,0,0
12053560962,1,-2,-5,-2,3,2,-2,-2
12053560962,0,-2,4,-8,-4,1,-1,1
12053575965,-1,1,3,-1,-10,-4,-3,-3
12053575965,-3,-6,-4,0,1,-2,-2,0
12053583429,-2,-4,-7,-6,3,-2,-1,1
12053583429,-2,0,-3,-3,1,1,0,-1
12053592404,-1,-1,-2,9,4,0,3,-1
12053592404,1,3,2,6,2,3,2,-1
12053605964,-3,0,-1,2,0,0,-1,-1
12053605964,-2,-6,-5,-8,-3,-3,1,-1
12053614861,0,-1,1,-6,-2,-4,-2,0
12053614861,-4,0,5,2,1,-1,-1,0
12053629215,2,-2,2,9,6,3,-1,-2
12053629215,1,-2,-6,3,-1,-2,0,0
12053636005,0,2,-4,0,2,2,-2,1
12053636005,1,2,-2,-17,-5,-2,-3,0
12053652385,0,-4,-6,8,6,1,-1,-1
12053652385,-1,2,0,-4,-5,0,0,-2
12053653999,1,-2,-2,0,1,-2,1,-1
12053653999,0,-2,1,5,0,-3,-3,-3
12053665955,1,2,7,-1,-15,-6,-1,-1
12053665955,-1,-4,-11,1,7,1,-2,0
12053674866,-4,-4,-3,-1,1,-1,1,-1
12053674866,1,0,-2,-6,-6,-1,0,-3
12053689218,-1,0,3,-7,-3,-3,-1,-1
12053689218,-2,-2,3,12,0,-1,-1,-1
12053695971,-2,-1,-1,-5,-5,-1,0,-4
12053695971,2,-4,-2,1,1,1,2,1
12053712259,2,5,-2,-4,-1,-2,-1,-1
12053712259,-8,-1,-2,-1,-1,2,-2,-3
12053713834,-1,-7,2,-1,2,-1,-2,0
12053713834,-2,0,1,-1,-9,-3,-3,-2
12053725984,1,-4,-6,4,10,4,3,-1
12053725984,-1,1,7,-1,1,3,1,-2
12053734848,0,-2,-3,3,-4,-3,-2,-1
12053734848,7,1,-3,-7,0,-3,0,-1
12053749601,-3,-4,-7,-4,-9,-4,-2,-3
12053749601,-1,0,-1,-7,3,-1,1,-1
12053756001,-3,0,-3,4,9,2,0,-1
12053756001,-5,-2,-2,-2,1,-1,-4,-3
12053772360,0,0,4,2,-1,-1,-1,-1
12053772360,2,1,1,-2,-1,-2,-1,-1
12053774003,-1,-1,-5,-12,-6,0,-2,-1
12053774003,-3,-7,-5,2,3,-1,1,-1
12053786655,-1,-3,4,-4,-4,-1,0,-2
12053786655,2,1,1,0,-6,-5,-2,1
12053793398,-2,-1,1,-3,0,1,-1,0
12053793398,0,1,-2,-3,-4,-2,-1,-1
12053809059,-3,-2,-4,2,2,2,-2,-1
12053809059,0,2,5,3,-5,-1,-2,1
12053815950,-1,-6,-19,-13,-3,0,-3,-1
12053815950,0,-2,0,3,-1,3,3,-1
12053832304,-2,4,-2,3,8,0,-1,-1
12053832304,0,6,0,1,0,-2,-1,-1
12053833906,2,-3,3,0,-4,-1,1,0
12053833906,-3,-4,-1,-1,-6,-3,-3,-2
12053846637,0,1,-2,-6,0,0,0,1
12053846637,-2,-3,2,4,1,0,0,0
12053853410,-1,1,1,2,-1,-4,-2,-2
12053853410,-2,0,-4,-3,-3,-1,-1,-1
12053869085,-1,-1,5,0,-3,-3,-1,-1
12053869085,-2,-1,3,4,1,-2,-1,-1
12053875872,2,1,3,-2,-2,-1,0,-1
12053875872,1,0,-2,5,8,2,-1,2
12053892388,-3,-2,-9,-6,-12,-3,-2,-1
12053892388,-5,-7,-6,-4,4,-3,-4,-4
12053893833,1,-1,0,4,-6,-3,-3,0
12053893833,4,4,1,4,4,0,1,2
12053906726,2,2,3,-1,3,3,0,0
12053906726,0,-1,-1,-5,-1,-1,-2,-1
12053913468,-6,-1,0,-4,-11,-3,-2,-3
12053913468,-2,-3,-4,-4,3,0,2,-2
12053929209,1,-3,0,7,2,-1,-1,1
12053929209,0,-1,1,1,4,0,1,1
12053935921,-1,-2,0,1,5,2,1,-1
12053935921,-2,0,2,6,-3,0,-2,-2
12053952396,0,1,-3,-5,-5,-1,0,0
12053952396,-3,-4,-4,-2,-6,-6,-1,-5
12053953858,0,0,-2,-6,-6,-1,-1,-1
12053953858,0,1,5,9,5,2,0,1
12053966018,-3,-2,0,-8,-3,-1,-1,-2
12053966018,-4,-1,-5,-6,-8,-2,-2,-3
12053974830,-2,-2,-4,3,8,1,0,1
12053974830,0,-2,2,-7,1,0,-1,-1
12053989064,1,1,2,5,3,0,-1,-2
12053989064,-3,-3,4,-4,-4,0,-2,0
12053995857,0,1,-3,-3,-3,-4,-2,-3
12053995857,2,0,-7,-3,-8,-2,-2,0
12054012251,1,-1,-4,-4,3,2,0,-1
12054012251,-1,1,4,-5,0,1,2,0
12054013765,-6,-5,-6,2,6,-3,-2,-2
12054013765,-3,-2,-3,-12,-6,-3,-1,-1
12054025823,-2,-3,-3,5,-4,-1,0,0
12054025823,-3,1,1,6,-4,1,-2,-2
12054034870,5,1,2,-3,0,4,3,1
12054034870,-2,-2,-4,-7,4,0,0,-1
12054049138,-1,0,-1,-4,-1,-2,-2,-1
12054049138,2,-1,5,4,-1,-3,0,-1
12054055863,-1,1,3,1,-7,-4,-2,0
12054055863,-4,-5,-3,-2,-1,-2,-2,-3
12054079652,-3,-2,2,4,8,2,1,-1
12054079652,1,1,-5,-5,2,0,-3,1
12054081305,0,3,3,4,2,0,-1,0
12054081305,1,-1,0,-1,-1,-2,0,0
12054085960,-1,0,-4,1,-4,-2,-1,-1
12054085960,-2,-5,-1,-2,-1,2,-2,-3
12054094878,-2,1,0,-5,-3,-2,-3,-1
12054094878,-1,-3,-2,7,1,0,-2,-3
12054109157,-1,-1,3,3,-14,-3,-3,0
12054109157,0,-3,-1,-1,7,2,-2,-1
12054115964,-2,1,0,-6,3,2,0,-2
12054115964,-1,0,3,5,-2,-1,0,-1
12054132299,0,-1,-3,-7,-7,-3,-1,-1
12054132299,-1,-1,-7,-2,-7,-3,-2,-2
12054133810,-6,-3,1,3,-1,-3,-3,-2
12054133810,-1,-1,-3,-4,-3,-1,-4,1
12054145998,0,-1,-7,-6,-4,-1,-2,0
12054145998,0,0,-4,4,8,2,1,1
12054154921,0,-2,-2,-3,1,0,2,-1
12054154921,-3,1,2,1,2,3,1,-1
12054169087,-1,2,4,-6,-8,-4,-2,-3
12054169087,2,-4,-6,-4,-4,-3,-1,0
12054175964,0,-1,-2,-3,4,-1,0,-3
12054175964,1,-2,-1,7,-2,-1,0,0
12054192367,-2,-1,0,2,6,-3,-2,-2
12054192367,-1,-1,-10,-5,-8,-4,-2,1
12054193876,-2,0,4,1,-1,3,1,2
12054193876,-2,-2,0,0,0,1,0,1
12054205894,1,0,1,-6,6,3,-1,0
12054205894,-2,0,8,3,-7,-5,-4,-1
12054214834,-1,-3,-7,-5,-5,-4,0,-2
12054214834,-2,-3,-2,-5,0,-3,-1,-3
12054229111,-2,-1,-6,-5,1,-1,-2,-1
12054229111,0,-2,1,-4,-4,1,0,1
12054235916,-2,0,2,6,4,3,-2,-1
12054235916,-1,0,0,2,-1,0,-2,-2
12054251482,-2,-2,-5,-2,0,-2,-1,-3
12054251482,-2,3,1,2,2,-2,1,-2
12054258488,-2,-1,-4,-2,-4,-1,-2,0
12054258488,-3,-2,-3,-3,-2,-3,-3,-1
12054265900,-1,-3,-1,-3,-6,0,-2,0
12054265900,2,-1,-5,-2,2,-1,3,0
12054274904,-2,-3,2,-3,-6,-4,-3,-2
12054274904,-1,-1,-3,-4,-3,-5,-2,-2
12054289112,-2,-1,-1,2,2,-1,0,0
12054289112,-4,-1,2,4,3,3,0,-2
12054295780,0,-5,-4,-9,1,-2,-2,-3
12054295780,3,0,0,-4,-7,-4,-3,0
12054311555,-5,-1,1,-4,-6,-2,0,0
12054311555,-1,-3,-2,8,5,1,-1,0
12054318455,2,4,4,5,6,-2,-2,1
12054318455,-3,-2,-2,-2,-5,-1,-2,0
12054325972,-3,-3,0,0,-1,1,0,-3
12054325972,0,2,6,2,9,2,0,-2
12054334796,-3,-6,-8,2,-3,-1,1,-1
12054334796,3,5,3,2,-1,-5,-2,-1
12054349123,3,-1,-1,-1,-2,-3,0,1
12054349123,2,-8,-7,-7,-8,-6,-4,-1
12054355868,1,-3,-2,-7,-2,-2,-2,-2
12054355868,-4,-3,-2,0,-4,-1,-1,-3
12054371588,-2,-1,-5,-4,2,-3,-3,0
12054371588,-2,2,1,1,1,2,0,0
12054378467,0,3,2,6,1,1,0,0
12054378467,-4,-2,1,-1,7,4,2,-1
12054394806,-3,-6,-7,2,-3,-1,-2,-2
12054394806,2,1,1,-6,1,-6,-1,0
12054396478,2,0,0,-4,-4,-2,1,0
12054396478,-2,-4,-2,-6,-4,-3,-1,-1
12054409176,0,2,0,8,0,0,-1,1
12054409176,-2,-2,-5,-5,1,2,0,1
12054415890,-6,-6,1,11,5,5,3,-1
12054415890,3,2,2,2,0,1,1,0
12054431641,2,2,1,-3,-8,-4,-1,-1
12054431641,-3,-1,-5,-2,1,0,-2,-3
12054438478,-2,-3,-2,-2,-1,-3,-1,0
12054438478,-1,1,-2,-2,-2,-2,-4,0
12054454826,-3,-2,2,8,5,0,-3,-2
12054454826,1,2,3,-2,-1,1,2,2
12054456417,-2,0,-2,-3,1,2,-2,-3
12054456417,-1,2,-3,-4,-6,-6,-2,-2
12054469123,1,-5,-7,-4,-3,-1,-1,-3
12054469123,0,1,2,-4,-4,0,0,0
12054475875,1,-1,-1,11,5,0,1,1
12054475875,-4,-5,0,-1,0,-1,3,1
12054491511,-3,1,2,-2,-3,-1,-2,-1
12054491511,1,-3,-5,-1,-5,-4,-4,0
12054498382,-5,-1,-2,-7,-7,-2,-1,1
12054498382,3,0,-5,2,-3,0,-2,-1
12054514838,1,1,6,8,15,2,2,0
12054514838,-3,-3,-1,-4,-6,-2,-1,-3
12054516381,0,1,-1,2,2,-5,-2,-1
12054516381,-3,-3,1,0,1,1,1,-1
12054529158,-1,-5,-1,-6,-6,2,1,0
12054529158,1,1,-3,-2,4,0,-2,-1
12054535886,2,1,4,-2,-6,-5,-2,-1
12054535886,-3,-5,-7,3,6,1,2,-1
12054551671,-2,-6,-8,-2,-3,-3,-1,-2
12054551671,-3,-2,-1,4,-1,1,2,-1
12054558448,2,5,4,-4,-6,-3,-3,1
12054558448,-1,-6,-9,-4,1,1,0,-1
12054574827,-2,1,2,0,-4,-1,-3,-1
12054574827,-3,-1,-2,1,-3,-1,-1,-2
12054576433,-2,-2,-5,-2,3,1,-1,-3
12054576433,-3,-4,8,-3,-5,-2,0,-3
12054589026,-1,-1,0,-3,2,-3,-1,0
12054589026,1,-2,-2,-1,-5,-3,-1,2
12054595937,1,-3,0,0,-2,1,0,0
12054595937,-2,4,1,2,6,2,-2,0
12054611522,-2,0,-2,-5,-3,-1,1,-1
12054611522,-5,-2,1,1,0,-4,-3,-2
12054618477,1,-3,-5,9,3,2,-1,-2
12054618477,0,-1,1,-2,-7,0,-2,-1
