timestamp,emg1,emg2,emg3,emg4,emg5,emg6,emg7,emg8
7272427945,2,5,0,-2,-1,-1,-3,-2
7272427945,11,1,7,-1,-5,-2,-2,3
7272428741,-1,-6,-11,7,6,1,0,-2
7272428741,0,8,2,-2,-1,-1,-1,0
7272432911,7,1,-3,-8,-2,-1,-1,0
7272432911,-11,-1,2,-21,-4,-3,-3,-6
7272434463,-7,0,5,32,5,2,1,-2
7272434463,-1,-4,-5,0,0,0,-1,1
7272439324,2,-7,-3,0,0,-1,2,-1
7272439324,7,9,-2,-8,-3,-2,-13,4
7272450833,8,9,4,-13,-5,-2,-3,-1
7272450833,-7,-6,-3,1,1,-1,11,4
7272463040,29,4,5,6,-1,2,-2,-2
7272463040,-6,1,15,13,2,2,5,3
7272470747,-29,14,-7,-25,-3,-4,2,-9
7272470747,-9,-27,-11,10,7,3,-13,0
7272478094,-23,-69,-19,3,-8,-3,2,-2
7272478094,14,21,-19,-19,4,1,7,2
7272493071,19,-28,14,11,-1,2,1,3
7272493071,1,66,4,-32,-7,-2,-1,-2
7272499411,-13,-65,-4,31,13,4,3,0
7272499411,-7,-80,-31,-1,9,2,-1,-3
7272546750,-1,13,1,2,11,6,4,5
7272546750,-8,-31,0,-6,-2,3,-2,1
7272547514,6,25,8,-1,-6,-4,-4,1
7272547514,9,16,3,3,-3,-3,-3,-4
7272548330,-12,4,-6,-12,-10,-5,-1,0
7272548330,3,3,5,11,1,-2,0,0
7272551657,9,10,0,-1,-1,0,-1,3
7272551657,-4,-3,6,-27,-15,-4,-1,0
7272559130,13,0,-7,23,9,0,-5,-1
7272559130,-24,10,-4,3,3,1,2,-8
7272568024,-11,-19,-1,9,1,3,2,-5
7272568024,6,23,0,-6,-18,-16,-5,0
7272574159,1,-7,-8,-18,5,8,5,-1
7272574159,9,7,-1,16,13,7,5,2
7272589183,2,2,1,0,-1,-1,-2,-5
7272589183,-11,-20,-3,9,19,10,2,0
7272596659,-5,-13,3,-4,-15,-3,1,1
7272596659,-1,-9,-1,-13,-12,-13,-5,-3
7272605546,6,-6,6,17,0,-2,-1,1
7272605546,6,-6,-2,-35,-1,-4,-2,-1
7272619049,-17,-21,-2,-31,-5,3,1,-5
7272619049,3,-2,7,17,2,-1,-1,-2
7272636174,-9,-15,-5,3,2,9,2,-2
7272636174,8,-7,-15,9,-3,-2,1,2
7272637131,-2,8,7,-5,-14,-13,-9,-8
7272637131,0,4,6,22,-1,5,2,-1
7272649150,0,-7,2,-2,11,0,0,0
7272649150,12,22,-2,8,10,-1,2,5
7272665438,-4,-9,-5,17,5,-6,-6,-7
7272665438,-8,-4,13,-22,-5,-1,-2,-4
7272666994,0,10,8,3,-11,-12,-2,0
7272666994,5,19,-7,31,17,11,4,1
7272679185,-3,-9,-6,-10,-4,-1,0,-3
7272679185,3,1,-18,-34,-3,-7,-5,-3
7272687997,-1,-2,1,20,-3,-3,0,2
7272687997,-14,-6,4,-10,-17,-7,-4,0
7272694128,10,2,-3,-7,12,6,2,2
7272694128,3,-2,1,0,8,5,3,1
7272709163,-11,-17,-12,-29,-7,0,-2,-6
7272709163,2,0,7,33,5,-4,-5,-3
7272716547,1,5,19,21,2,-5,3,-1
7272716547,-3,-11,-13,-4,-8,2,-9,4
7272725528,-6,4,-7,-20,-7,-14,-2,-6
7272725528,-8,-12,0,-11,-11,-6,-1,-4
7272739130,-11,-11,2,5,0,10,2,-1
7272739130,13,13,-2,-4,2,-10,2,0
7272748057,3,0,-3,-2,-2,6,-6,3
7272748057,-3,-5,-1,-4,-2,1,2,-3
7272754159,-1,8,6,2,3,-4,-3,0
7272754159,-4,-1,-6,1,-9,-17,-1,-9
7272769156,-3,-2,-4,-5,0,20,-9,7
7272769156,-5,-14,0,-4,-1,13,26,-1
7272776673,-5,-1,-3,0,-3,-6,-12,-6
7272776673,1,0,-2,-4,-6,-17,4,4
7272785545,5,-2,6,6,9,3,-6,-4
7272785545,-1,-16,-7,-12,-4,4,-1,-3
7272799155,7,2,-3,0,-2,-7,8,9
7272799155,-12,-10,1,-1,-2,10,-12,-3
7272808024,-6,1,0,-5,-1,-9,-2,-1
7272808024,-2,-3,3,2,1,-6,-5,-9
7272814171,-8,-3,-6,-5,-6,-8,6,1
7272814171,5,2,-1,-2,1,18,1,2
7272829188,15,5,-2,2,0,0,6,2
7272829188,1,7,2,1,1,-3,-4,1
7272836656,1,18,7,1,-1,-3,-4,0
7272836656,-16,-5,-7,3,0,6,-5,-5
7272845518,4,5,5,-17,-8,-6,3,4
7272845518,2,-23,-7,-4,1,0,-6,1
7272859144,-7,-39,4,3,0,-2,-7,-4
7272859144,-18,5,4,11,-2,2,9,3
7272868039,-15,-39,-38,-22,-1,-5,-3,-14
7272868039,0,40,-11,-31,-14,-4,-5,6
7272874051,21,19,41,7,-6,0,-3,1
7272874051,-2,-5,-34,-19,-3,-3,5,4
7272889213,-5,-15,19,18,4,2,2,-3
7272889213,-8,-7,10,4,-2,-6,-9,-8
7272896568,-2,-41,-52,-62,-6,9,5,0
7272896568,25,30,24,7,-2,-4,-3,4
7272913062,11,13,-7,8,15,5,5,4
7272913062,-25,1,4,-3,-12,-6,-7,-7
7272919155,28,1,13,7,-6,1,3,5
7272919155,-30,-41,-27,1,1,-6,-9,-10
7272927980,13,39,-5,-11,-15,-8,0,8
7272927980,2,-74,8,17,14,10,3,0
7272934137,-21,25,-11,9,4,1,12,-4
7272934137,27,-25,19,6,2,4,-15,2
7272949077,-5,31,3,-4,1,-3,-6,-4
7272949077,5,40,-1,3,-6,-6,0,4
7272956626,-15,-23,-17,-7,-2,-2,-2,-3
7272956626,-8,-3,26,23,-15,-9,2,-3
7272971664,1,31,-8,-23,16,11,4,4
7272971664,0,-8,-8,-10,11,7,1,-2
7272979105,-4,15,1,7,-13,-2,7,-1
7272979105,0,10,6,-8,-3,4,8,1
7272988020,-10,-36,6,35,13,-3,-9,-5
7272988020,11,22,-4,3,13,6,6,4
7272994128,-11,-24,3,3,5,-4,-9,-2
7272994128,16,11,1,-9,-2,-4,-4,-1
7273009164,4,3,-3,9,-18,2,8,2
7273009164,-14,-26,1,-3,2,-5,-5,-4
7273016663,1,3,2,29,-5,-9,-11,-4
7273016663,7,13,-9,-24,-1,-4,0,-4
7273031661,2,-19,-10,-17,-5,-6,3,-1
7273031661,-2,5,7,16,-4,1,-6,-3
7273039156,2,-3,4,19,10,-4,-1,0
7273039156,-6,-1,-7,-16,-3,5,2,-6
7273047965,-11,-17,1,-12,-7,0,5,0
7273047965,-2,8,-4,4,-5,-6,-5,-2
7273054160,2,20,0,-5,12,9,0,-2
7273054160,0,1,4,2,2,2,-1,2
7273069134,-5,-6,3,-1,-7,-9,-5,-4
7273069134,8,5,-8,-6,-18,-2,3,1
7273076557,-8,-4,-8,-20,10,9,1,-5
7273076557,8,15,9,29,16,-7,5,9
7273091637,-3,-3,-6,-2,4,14,9,0
7273091637,2,-2,-7,5,-3,-6,-11,-4
7273099079,3,6,1,-2,-15,-19,0,-3
7273099079,-1,-1,-6,-15,5,19,-4,0
7273108037,-4,4,-6,16,3,-10,-3,0
7273108037,5,3,-3,-6,3,-2,1,3
7273114047,-1,0,0,6,1,-5,-7,0
7273114047,-8,-8,-7,0,-6,0,5,-8
7273129142,-1,-5,10,8,1,-6,-8,-3
7273129142,-8,-2,1,3,0,1,-4,-1
7273136655,0,-5,-16,-13,-4,1,0,-2
7273136655,-5,-5,-7,1,-5,-16,-11,-2
7273151551,-1,1,-6,-8,-4,8,-2,-6
7273151551,-4,-8,5,-3,1,-7,-24,-1
7273159172,7,-4,4,6,2,7,-10,5
7273159172,-5,-11,1,-6,-2,-3,27,-3
7273167991,1,-9,3,5,0,0,-16,-10
7273167991,3,-6,-1,-6,1,17,22,24
7273174109,-12,0,-5,-5,-1,-9,-11,-1
7273174109,4,5,0,6,0,6,10,2
7273189093,1,2,2,-5,-1,-11,-8,-5
7273189093,-5,-1,3,1,-2,-3,3,-7
7273196602,14,11,1,-2,-3,4,14,0
7273196602,-16,-9,-3,-2,0,1,-4,0
7273219758,-18,-23,-2,-5,-7,-6,-2,0
7273219758,4,-10,-1,-6,1,-14,3,-7
7273220497,-4,1,1,3,0,22,6,6
7273220497,13,-1,-3,-3,-2,-27,-22,-5
7273228016,-13,0,-1,-3,3,8,8,-4
7273228016,-3,14,0,0,-1,1,1,1
7273234041,-9,-7,-1,2,-1,3,-5,-7
7273234041,15,5,-4,-1,-6,3,13,10
7273249132,10,13,1,-5,-2,-6,2,6
7273249132,-2,-5,-5,0,2,-2,0,-4
7273256660,3,-28,6,-17,-11,-4,-17,-8
7273256660,2,86,2,27,13,9,-4,10
7273271635,-34,-64,-4,-2,-6,-6,8,-11
7273271635,24,85,-10,-5,-1,3,3,-1
7273279136,-43,-80,-19,7,-11,-10,-17,-14
7273279136,11,3,-54,-70,-15,-7,-11,3
7273288031,26,69,19,15,7,17,25,17
7273288031,-14,-76,2,-21,-8,-21,-20,-11
7273294158,12,95,17,33,2,1,9,5
7273294158,-14,-61,-15,15,25,14,-7,-11
7273309189,-2,-14,-16,8,8,-4,8,2
7273309189,6,-52,13,0,-15,-3,-13,-6
7273316640,7,55,4,-40,-17,-18,-14,-2
7273316640,-6,-21,2,19,0,-8,-14,-9
7273331531,-5,-71,-7,-7,-7,2,-3,-7
7273331531,-17,97,5,6,10,7,33,-3
7273339110,-9,-82,9,38,-7,-20,-50,-3
7273339110,3,27,11,-32,-35,1,-11,8
7273348036,16,23,-35,-51,41,5,-19,3
7273348036,1,-63,11,-26,-16,5,5,3
7273362319,7,21,-17,-8,-12,-12,-2,-11
7273362319,-11,-7,-4,-4,1,-3,-13,-7
7273369111,5,31,17,29,-10,-4,2,10
7273369111,-9,1,-10,-15,6,5,-7,0
7273376500,17,-6,-27,-41,-8,-19,3,8
7273376500,-9,-20,35,14,-13,1,15,-3
7273391605,5,22,2,-8,5,28,7,2
7273391605,20,9,0,46,32,-2,1,5
7273399068,-17,-22,18,12,1,0,-13,0
7273399068,-5,-19,-6,0,4,-15,-1,-2
7273408119,1,5,0,-13,-27,2,4,-5
7273408119,-13,-23,-22,-27,-23,-10,0,-9
7273422294,11,15,17,22,8,18,26,0
7273422294,5,11,-5,12,35,12,1,-2
7273429058,-8,-11,10,12,-14,-4,-4,-5
7273429058,2,4,2,28,2,6,-5,0
7273436568,5,16,6,-4,-2,-13,20,3
7273436568,3,-6,-11,-23,-13,15,-6,-1
7273451607,4,-4,7,-12,3,-16,-3,0
7273451607,-13,-10,-5,-15,-18,-14,-17,-9
7273459137,6,-5,-13,-2,12,37,17,9
7273459137,-2,-1,4,11,19,1,22,5
7273468018,-2,-1,3,10,-5,-7,-21,-1
7273468018,-2,11,-1,-9,-3,3,-2,0
7273482261,-7,7,14,37,-12,-7,-5,-3
7273482261,-2,-11,-34,-27,18,8,8,-2
7273489159,-4,8,7,3,-9,-14,-14,-8
7273489159,-20,-19,17,-6,-3,12,3,-5
7273496633,6,7,11,60,43,16,18,4
7273496633,3,1,-16,-40,-13,-7,-3,-1
7273511631,-9,2,9,-24,-24,-20,-6,-7
7273511631,2,-2,6,51,9,-6,-5,-1
7273519134,4,12,-28,-38,-16,3,3,0
7273519134,-2,-5,7,24,13,-6,-8,-2
7273534149,6,6,-13,-2,6,2,3,5
7273534149,0,19,14,-3,-10,-2,2,2
7273542300,1,5,-6,-3,12,8,-4,-6
7273542300,2,4,29,27,-18,-21,-8,0
7273557345,-11,-29,-11,-8,-5,23,6,0
7273557345,7,-12,-13,-6,10,8,1,4
7273557943,30,-2,0,-9,-9,-30,1,-2
7273557943,-41,-16,6,-7,-12,14,-3,-11
7273571696,-29,-28,-2,20,10,2,11,-4
7273571696,-8,-13,-9,-4,1,2,0,-1
7273579151,-1,-12,-4,-21,4,1,-8,0
7273579151,34,14,12,12,-8,0,11,6
7273594142,10,13,-7,-6,-4,-17,-42,-2
7273594142,-5,6,-3,4,4,3,5,-2
7273602254,-12,8,-5,-23,-10,1,4,-10
7273602254,-1,6,4,4,-6,-24,-8,5
7273617127,4,16,5,18,13,14,22,3
7273617127,5,0,-9,-14,-1,0,-9,-5
7273618061,-6,-7,9,0,5,6,1,4
7273618061,-2,-15,-2,1,-9,-9,-15,-6
7273631600,8,-9,-5,-3,-4,-7,1,-1
7273631600,12,-3,-4,-1,0,-6,-24,7
7273639140,-9,-4,-4,-10,-1,-1,9,-9
7273639140,-14,-2,5,1,-7,10,-5,-3
7273653918,13,9,-2,0,-4,-11,-6,1
7273653918,6,14,-1,4,12,9,-6,1
7273662297,-23,-5,4,-3,-2,2,1,2
7273662297,8,9,6,4,0,3,7,-2
7273677305,15,8,-6,-6,-2,-17,-9,-1
7273677305,-18,-19,-2,-12,-11,-5,-2,-9
7273677943,6,9,-5,1,7,4,-5,6
7273677943,-24,32,4,5,-8,-1,5,-5
7273691623,12,34,19,18,11,5,9,-1
7273691623,5,-3,-4,20,-3,-7,4,-1
7273699109,6,-40,-14,-35,-6,1,-1,3
7273699109,-14,-52,7,7,6,2,0,-1
7273714052,19,35,-4,2,5,3,1,-2
7273714052,5,-26,9,-27,-6,1,7,5
7273722247,-15,-30,8,33,-3,-2,-5,-5
7273722247,43,18,-29,2,7,-2,-4,-1
7273737273,-15,-32,13,12,3,4,7,12
7273737273,-41,-7,0,26,-7,-1,6,-20
7273737998,32,43,14,-7,0,-9,-8,7
7273737998,4,8,5,-39,-13,-1,-5,-6
7273751634,-24,-1,2,-4,7,7,25,3
7273751634,17,42,-9,13,2,-5,-18,4
7273759124,-11,15,9,-10,-6,0,-1,-6
7273759124,16,57,4,21,0,-1,4,3
7273774115,23,-1,6,-15,-10,-6,-13,-7
7273774115,-9,10,0,-24,-11,-4,9,9
7273782286,-33,-65,-32,-9,-12,-8,-6,-6
7273782286,3,47,14,-5,0,-1,-5,3
7273797321,-1,-8,-4,-2,2,9,6,-3
7273797321,-11,-17,-6,2,6,-6,-6,-3
7273797901,20,13,1,8,6,10,13,1
7273797901,-9,-26,-4,4,18,0,-2,2
7273811573,-8,-23,3,6,-18,-22,-1,-4
7273811573,20,-6,-10,-23,9,24,3,2
7273819136,3,5,4,15,3,12,-1,3
7273819136,-14,-33,-3,-13,-4,-7,-32,1
7273834179,-11,-13,-12,-9,-6,-2,4,-8
7273834179,7,6,-4,-7,-9,-23,-13,-4
7273842280,-10,11,-1,4,-3,2,10,-2
7273842280,8,-14,6,20,-1,7,2,-4
7273857291,-13,-14,-16,-16,0,-4,-11,-5
7273857291,13,22,-10,-23,-6,-2,13,10
7273858014,-7,3,3,14,-3,-5,-15,-8
7273858014,4,-6,-25,11,-7,-1,13,2
7273871578,-6,6,12,2,-1,6,1,-2
7273871578,-2,-1,-5,-7,-3,-3,6,-6
7273879094,-3,4,-1,17,-10,1,3,1
7273879094,-12,-7,13,-10,11,-2,5,-8
7273894093,2,2,-10,-11,3,3,-3,0
7273894093,-23,-36,12,15,0,-1,-2,-6
7273902200,9,18,-1,0,-4,-10,-5,3
7273902200,-2,-8,18,2,-12,2,4,0
7273917236,-9,-3,5,10,1,1,-9,-4
7273917236,7,10,-4,-2,-5,-10,-3,-2
7273917972,-3,-12,-33,-10,6,4,5,-8
7273917972,-7,5,-7,-3,-6,-2,-3,2
7273931586,5,11,-10,-6,2,5,-32,6
7273931586,25,32,19,19,11,16,37,8
7273939088,8,7,-1,-17,-3,-10,-26,2
7273939088,-18,-5,-23,-2,2,-4,14,-4
7273954050,-8,9,9,-2,-6,-15,2,-10
7273954050,11,9,14,9,6,5,1,14
7273962302,3,15,-2,-13,-1,16,-16,-7
7273962302,4,-3,6,3,2,-13,-4,8
7273977296,-11,-10,7,11,2,1,7,-4
7273977296,-11,4,-7,-6,-2,-8,1,-4
7273977968,9,-6,14,-6,7,3,27,3
7273977968,4,-37,-7,-2,-4,1,-23,-5
7273991604,-4,-22,-5,-5,-7,-10,-3,3
7273991604,7,-27,-6,4,5,3,-20,-8
7273999099,-10,-2,-2,-10,-1,-2,3,2
7273999099,-8,-1,-2,-2,-7,-6,5,-8
7274014113,-2,-10,-7,2,1,8,-18,1
7274014113,-3,-18,-1,-4,-2,17,2,-8
7274022319,4,-10,3,-2,-1,-8,2,5
7274022319,8,-9,3,-1,1,-10,-13,-2
7274037199,4,2,-8,-4,-4,2,16,-2
7274037199,-10,0,-8,-2,-1,-15,-5,-1
7274038023,-13,-2,-3,-5,-4,3,-14,-3
7274038023,5,15,3,2,1,6,17,-1
7274051668,17,18,-3,-1,0,-2,-18,6
7274051668,-16,-1,0,-3,-7,-6,16,0
7274059148,-27,4,6,4,2,-24,-1,-7
7274059148,-2,15,3,-2,3,29,16,2
7274074105,2,-6,-5,-11,-8,-2,4,-4
7274074105,-2,28,2,16,0,-15,-8,-5
7274082273,7,-40,-5,-19,-1,-7,-8,5
7274082273,6,20,-15,-2,10,16,19,6
7274097281,5,48,41,46,7,7,8,2
7274097281,4,-29,-42,-50,3,4,-2,3
7274097969,22,64,48,33,-14,-3,7,5
7274097969,-34,-85,-44,51,10,-5,-12,-10
7274111589,-50,91,-14,-63,-14,-3,0,-8
7274111589,0,-102,30,42,8,-6,-10,-8
7274119107,-1,65,-46,-54,-7,-1,7,-2
7274119107,34,47,48,0,-3,4,-3,6
7274134059,1,-78,-32,5,11,5,15,10
7274134059,-10,35,3,16,-16,-2,-16,-3
7274142286,7,-5,20,1,14,2,20,-9
7274142286,-36,-12,-4,-25,1,-5,-31,-10
7274157256,3,-32,13,26,-7,3,5,1
7274157256,12,64,1,-37,8,7,9,9
7274157969,2,-21,-10,12,-6,-2,0,4
7274157969,-11,4,-6,-2,-5,-8,3,-2
7274171505,7,-1,6,-5,-3,-7,-23,-2
7274171505,-1,7,1,23,2,4,16,0
7274179041,8,-12,22,47,13,7,-2,0
7274179041,-16,-11,-20,-56,-10,-7,3,-3
7274194114,-17,-14,-11,-5,-6,-6,-9,-4
7274194114,17,19,7,-15,-4,-6,-3,-1
7274202280,-16,-19,-12,13,9,1,-7,-5
7274202280,17,17,9,15,-22,-16,3,4
7274217225,21,8,-7,1,16,6,22,1
7274217225,-18,-14,-15,-32,-6,6,-21,-7
7274217940,-1,-11,8,-8,19,7,12,0
7274217940,4,-13,8,20,9,6,24,4
7274231613,5,-6,-6,1,-6,2,4,-5
7274231613,11,-5,-2,-3,-11,-10,4,6
7274238987,-18,-27,-15,-21,-11,3,-10,-10
7274238987,11,8,13,7,-1,2,5,-3
7274254081,-3,-7,4,4,9,-11,0,-3
7274254081,3,4,5,-14,-9,0,-7,-7
7274262310,-1,-1,-3,1,-7,1,22,7
7274262310,2,3,4,36,-7,-10,-8,-4
7274276579,1,1,-14,-37,-2,-1,-5,-3
7274276579,-7,-3,-12,25,-6,-4,3,0
7274284783,-8,-6,-9,-34,5,-12,-13,-3
7274284783,8,7,4,-17,-3,15,4,1
7274300209,10,8,0,20,-3,2,3,4
7274300209,-7,0,5,1,2,-2,-9,-3
7274300920,3,3,1,20,-4,0,1,1
7274300920,-2,-1,-4,6,8,-5,-11,-1
7274314086,-8,-13,2,6,-1,-13,-12,-10
7274314086,-7,-6,-8,-13,-5,-2,0,-1
7274322283,-1,7,3,-7,-18,-14,-18,-3
7274322283,-6,-27,-6,-14,6,6,10,1
7274336611,1,5,-1,2,-4,4,0,-1
7274336611,-1,-5,11,18,8,-6,8,4
7274344752,-3,11,1,-8,-7,9,0,-3
7274344752,8,6,0,-15,-8,-13,-18,-1
7274359790,1,-8,5,7,7,7,9,0
7274359790,-5,14,6,10,3,2,-29,2
7274360480,6,4,-12,-13,-10,-14,-7,-2
7274360480,7,12,-5,-4,9,6,17,3
7274373985,-6,0,2,4,0,14,0,1
7274373985,-1,-4,-3,-5,-3,-9,-7,-7
7274382307,-3,3,4,4,2,9,-9,-1
7274382307,-2,6,-7,-11,-14,-27,-14,-9
7274396490,-11,-7,-1,-7,-6,4,20,-3
7274396490,-6,-3,-5,1,3,13,-9,0
7274404761,5,-3,-5,-1,0,6,-4,5
7274404761,2,-6,1,0,0,0,-6,1
7274419673,7,-20,0,-4,-2,-4,5,0
7274419673,-11,-21,-1,1,2,-7,4,-11
7274420521,1,-13,0,4,-1,-8,12,6
7274420521,2,-6,0,-2,3,6,-1,-3
7274434026,-4,0,0,-2,-6,-16,-19,-1
7274434026,11,0,-4,-2,1,9,16,5
7274442271,-10,-5,-2,0,1,-17,-13,-5
7274442271,-8,-3,1,-3,-1,9,11,0
7274456631,7,9,-2,-2,-1,17,0,-2
7274456631,-4,7,0,4,1,-1,21,2
7274464760,5,6,0,-5,1,9,2,2
7274464760,2,7,-5,3,4,-5,-12,0
7274479679,-3,0,2,3,-5,-10,-5,-1
7274479679,-4,-8,-13,-19,-5,1,-5,-4
7274480473,1,2,1,18,4,1,-4,0
7274480473,-18,-2,-4,-15,-5,2,-2,-4
7274494109,-1,3,15,24,-3,-8,-5,-1
7274494109,12,-4,-21,-22,2,-2,-1,4
7274502945,10,6,5,-8,3,1,2,2
7274502945,7,-6,-12,-9,-10,-4,1,0
7274516608,-18,0,-16,-34,-11,-6,-2,-6
7274516608,-2,0,8,14,3,-3,1,1
7274525440,-5,7,17,-2,2,3,-4,0
7274525440,22,-9,-17,-24,-11,-2,-9,-1
7274539011,-10,3,13,7,6,-3,15,2
7274539011,-5,-5,-15,-14,-15,-4,-22,-6
7274547916,1,-5,-14,26,18,5,1,-1
7274547916,-3,5,1,-1,5,-1,3,3
7274554119,8,1,9,26,-14,-12,-10,-5
7274554119,6,11,18,-10,12,5,11,5
7274562964,-14,-5,-7,12,5,7,6,-1
7274562964,-1,3,1,-12,-1,0,-3,-3
7274576587,6,5,-15,14,6,-6,-10,2
7274576587,-1,19,14,9,-8,-5,-5,-7
7274585409,-2,11,-11,-21,-14,-4,-1,6
7274585409,-14,-16,6,15,5,5,5,-3
7274599085,13,-1,-1,-28,-2,-3,-8,-1
7274599085,-21,-2,-1,14,2,-6,-7,-4
7274607958,4,9,5,-8,-3,-4,-4,-9
7274607958,-13,-23,1,18,0,4,4,1
7274614086,24,-3,2,10,10,-6,16,10
7274614086,-17,-18,-3,-11,-11,10,-16,0
7274622901,9,-10,-7,-13,6,0,1,-3
7274622901,1,14,10,9,5,-3,-2,-2
7274636582,-13,-12,-12,-7,-6,-3,-12,-4
7274636582,0,-5,-6,-1,-4,-14,8,-3
7274645457,7,-8,-2,-7,-7,2,-2,0
7274645457,10,7,6,9,-4,-12,-6,-2
7274659082,-4,2,-11,-4,9,15,-1,-1
7274659082,2,-2,11,24,10,-1,4,0
7274667945,2,5,-13,-48,-18,-3,-3,0
7274667945,-14,-19,4,9,-3,-4,-8,-13
7274674084,-7,9,-15,-2,0,-2,4,4
7274674084,10,14,4,10,-1,-5,3,2
7274682988,-4,-8,2,31,6,3,-3,-4
7274682988,7,14,-12,-35,-7,2,4,6
7274696539,-14,-28,6,8,-4,3,-5,-9
7274696539,-7,-24,-14,3,-6,4,1,-6
7274705465,-2,-23,1,2,7,-10,-4,-3
7274705465,4,16,2,-5,-11,-5,-4,-2
7274719037,-6,5,9,11,2,0,-10,-4
7274719037,9,9,-8,-19,8,2,8,4
7274727947,-13,-16,-2,-8,-5,-5,-1,-9
7274727947,-3,-5,4,16,14,10,-23,8
7274734059,14,1,-17,-15,-4,-4,5,2
7274734059,9,-2,17,6,-5,-3,-1,0
7274742963,-21,26,6,6,-3,-2,-1,-3
7274742963,-20,-37,-10,-21,0,1,8,-11
7274756576,6,17,8,2,0,9,-47,6
7274756576,2,-2,-8,1,3,-3,11,0
7274765461,-7,-18,-1,-6,-1,-7,-27,-6
7274765461,4,22,-3,7,-5,-6,20,3
7274778984,-5,5,2,-11,-3,-8,-1,2
7274778984,1,4,7,2,9,11,13,-2
7274787917,-1,-6,-6,4,-1,4,-12,-5
7274787917,-5,14,-1,2,-1,-14,-5,3
7274794067,10,12,9,-7,-6,25,16,0
7274794067,5,-1,-7,-4,1,-7,2,3
7274802946,1,12,-5,2,-1,0,21,5
7274802946,1,14,7,1,-3,7,4,-9
7274816576,-7,-16,-5,-6,-2,-21,4,-2
7274816576,-3,-26,0,1,-1,16,-7,-2
7274825472,13,-20,5,3,-1,3,2,-2
7274825472,-12,-30,-3,2,3,-9,-12,3
7274839015,-3,-17,-1,-6,-1,0,7,0
7274839015,-4,-3,-2,-1,-2,-1,-6,-2
7274847943,6,-10,-2,-1,-3,-7,2,1
7274847943,4,0,-3,-3,-2,0,3,1
7274854066,-9,-4,-5,-3,-2,6,-7,-2
7274854066,-1,-5,-2,-4,-3,-7,-3,3
7274862957,12,9,2,1,-4,0,-4,3
7274862957,-4,14,1,4,1,11,4,-4
7274876581,10,5,-1,-1,0,-12,-4,-1
7274876581,-26,7,-4,-4,-6,-5,22,-3
7274885432,5,15,3,1,2,5,5,2
7274885432,-6,19,8,2,-1,-6,1,2
7274899080,-6,-12,-14,-12,-3,-5,2,-4
7274899080,4,13,5,14,-3,4,-12,-7
7274907924,-1,17,-12,-4,3,-6,3,-2
7274907924,-2,-5,-1,4,1,3,0,0
7274913982,1,0,-13,-3,9,3,9,3
7274913982,7,-19,17,11,-6,-8,-7,1
7274922924,-15,71,-24,-44,-11,-2,-3,-6
7274922924,4,-24,6,1,-7,-9,-10,-3
7274936488,-5,-12,-32,-45,-10,3,-3,-5
7274936488,-16,6,-16,13,12,0,-4,-3
7274945455,1,-20,19,30,-3,1,1,1
7274945455,-15,-20,5,-26,-9,-4,-8,-8
7274959085,-1,-2,37,62,4,-3,8,4
7274959085,23,63,-19,-23,0,3,-5,-2
7274967935,-18,-70,-4,-38,10,4,13,-1
7274967935,17,19,-16,-2,1,2,-9,6
7274974124,7,12,15,41,0,-7,0,-5
7274974124,-7,-49,1,-1,-1,3,-8,-1
7274982940,17,70,14,27,1,-3,-5,3
7274982940,-10,-18,-8,-20,-8,-5,7,1
7274996526,7,11,-10,-42,-16,-7,7,3
7274996526,-10,42,27,27,-3,-5,-9,0
7275005406,6,-16,-14,5,10,12,1,-5
7275005406,19,23,2,7,17,6,4,4
7275019061,-15,12,1,-2,-4,-9,-13,-8
7275019061,-15,-10,-12,-38,-27,-12,1,0
7275027895,-7,-31,10,24,-13,-16,-10,-6
7275027895,-4,13,10,-1,12,10,4,-3
7275034105,3,-16,9,12,7,7,-4,1
7275034105,9,-35,-10,-6,13,-2,2,-1
7275042903,2,-5,2,-15,-3,5,-1,2
7275042903,9,4,-5,17,-18,-10,2,6
7275056540,-12,-19,-14,-11,6,-11,0,-11
7275056540,-4,-8,8,13,-14,21,-14,0
7275065415,-8,-7,3,3,10,-1,6,1
7275065415,6,0,-5,11,13,-1,1,-2
7275079049,-4,-5,2,-2,0,3,-3,-2
7275079049,3,7,-4,-26,-38,-20,-11,-7
7275087964,6,-6,-9,15,-1,-3,-5,1
7275087964,-23,-25,-3,-6,-1,7,0,-1
7275094087,2,1,-10,11,0,-6,-3,-1
7275094087,1,4,10,-29,0,-8,-2,-4
7275102915,-2,0,-1,3,-2,-2,2,1
7275102915,-3,-11,-6,-8,-12,-9,-7,-8
7275116578,4,-2,9,3,5,7,2,5
7275116578,5,10,-13,-6,0,-2,3,4
7275125472,-6,-7,0,10,4,1,-2,-1
7275125472,-1,25,12,-13,1,-4,-5,-6
7275139723,-1,3,-2,-7,-4,4,1,-2
7275139723,6,-10,1,17,9,-2,3,4
7275146557,-7,10,-11,-29,-13,-7,-9,-5
7275146557,7,-8,-4,1,-1,9,8,0
7275154080,-1,-2,-5,-7,0,4,5,0
7275154080,-3,3,7,2,4,-6,1,-3
7275162982,-3,-1,0,-9,-8,-5,4,0
7275162982,1,3,4,13,1,-7,6,-3
7275176564,2,3,-3,-8,-2,8,-35,3
7275176564,4,18,10,12,9,-3,6,0
7275185417,1,-7,-2,10,10,9,-1,2
7275185417,0,7,2,1,0,1,-3,-2
7275199657,-10,-14,9,-5,-4,-17,3,-4
7275199657,1,-9,-14,-5,9,17,14,2
7275206590,-2,3,0,-5,-8,-3,-15,-2
7275206590,-1,3,0,2,-2,-13,-7,-4
7275213996,1,0,1,-2,5,11,11,2
7275213996,-6,0,-4,2,6,7,0,5
7275222921,0,1,7,1,1,4,15,-2
7275222921,-5,-16,-7,0,-7,-10,-11,-4
7275236462,11,-11,2,-3,-4,-3,8,2
7275236462,-23,-30,-3,-2,-1,-17,-17,-8
7275245423,11,-11,2,3,3,22,17,8
7275245423,13,1,-2,0,0,-4,-6,5
7275259759,-8,-7,-3,-6,-4,-4,0,-3
7275259759,-7,-8,-4,-1,2,4,-5,-2
7275266462,-5,-8,-2,-2,-3,-8,-3,-3
7275266462,-7,8,-1,0,0,5,-5,-1
7275274063,-2,6,-3,-3,-3,-7,8,-1
7275274063,12,0,-5,4,4,9,-3,0
7275282923,1,1,1,1,-2,-8,-8,-3
7275282923,9,5,-2,-1,-6,6,2,1
7275296535,-5,7,-7,-14,-1,-7,-3,-1
7275296535,4,10,19,42,6,-5,5,1
7275305425,-6,-7,-22,-7,-5,-6,-7,-2
7275305425,11,8,14,28,24,13,10,4
7275319773,-17,4,-18,-33,-9,2,1,0
7275319773,3,9,3,14,-8,-3,-5,-4
7275326481,-9,24,32,6,4,-7,-4,-3
7275326481,13,-37,-38,-50,-13,-7,-5,1
7275334060,-7,39,12,16,2,5,1,-3
7275334060,-10,-2,-7,-3,-6,-4,-4,-7
7275342946,-19,-5,-12,17,8,-1,11,4
7275342946,-4,-3,16,22,-4,-2,-20,-4
7275356510,16,-8,9,-16,1,-1,-4,-3
7275356510,0,4,-29,-30,-13,-8,-3,0
7275365389,9,0,6,-1,-5,2,-2,-5
7275365389,-9,15,4,6,7,5,3,-1
7275379628,-1,-14,-1,16,3,1,4,-1
7275379628,-7,5,6,6,7,1,8,0
7275386527,16,0,-8,-14,-5,-3,-11,1
7275386527,1,21,-2,-4,-3,-3,-3,6
7275402673,-14,-15,8,14,-8,-7,-10,-15
7275402673,-7,6,0,-25,1,-1,10,3
7275409073,1,-2,-26,-27,9,8,2,-2
7275409073,4,-4,4,-8,-8,-3,12,-6
7275416570,8,11,2,24,10,1,-17,9
7275416570,-29,-25,-11,-29,-8,-2,-3,4
7275425412,-3,-31,7,15,-20,-11,-14,-6
7275425412,-13,-11,4,7,16,-2,1,-7
7275440205,13,-11,-10,-6,0,2,7,1
7275440205,34,1,7,8,-1,4,-4,2
7275446580,-16,0,11,10,6,-2,-2,3
7275446580,-4,-9,-8,7,-10,-3,-3,-3
7275462853,-3,4,5,-17,-9,-5,4,-2
7275462853,5,-11,-8,4,-6,2,-6,0
7275464369,5,1,-2,-19,-6,5,6,1
7275464369,4,4,9,44,10,-8,-3,6
7275476535,-2,-4,-3,9,3,6,-1,-8
7275476535,1,-4,-7,-5,-1,-2,4,-2
7275485434,9,16,-7,1,24,6,9,5
7275485434,-10,-8,0,-18,-13,5,5,-6
7275499653,1,4,1,-7,-6,-11,-7,1
7275499653,-4,-6,1,4,-8,-4,-3,-3
7275506501,-3,-8,2,4,-3,0,-2,-6
7275506501,-3,0,-17,-27,3,7,3,1
7275522912,-12,-15,1,-5,-8,0,6,-5
7275522912,-1,-3,-8,1,6,-2,-2,-3
7275524391,-3,-6,0,-7,-12,-7,-2,-2
7275524391,13,5,0,17,4,-2,4,6
7275536428,-5,-1,26,4,-16,0,-2,-6
7275536428,5,-12,-33,-35,30,10,8,3
7275545397,-10,-19,-3,9,-7,-4,-7,-3
7275545397,-11,-7,-4,-9,-3,-1,-4,-5
7275559688,8,5,-19,10,1,-2,4,3
7275559688,5,9,10,20,-5,-9,-7,-1
7275566480,8,35,24,8,4,-4,0,0
7275566480,-11,-26,-16,-13,2,12,9,-1
7275582838,2,8,5,2,12,4,0,6
7275582838,11,7,11,3,-2,1,9,3
7275584365,-5,0,-8,1,2,1,1,2
7275584365,3,21,6,3,-4,-3,5,2
7275596530,-9,-21,-7,-1,2,-5,-7,-6
7275596530,-1,5,13,2,0,-2,-8,-2
7275605395,1,-7,0,5,-2,-2,2,1
7275605395,-8,3,4,-10,-10,-1,11,-11
7275619800,4,7,-7,-2,8,8,38,9
7275619800,-11,-2,-3,-2,-5,1,-67,-1
7275626416,0,-2,0,-5,-3,-3,44,-10
7275626416,4,16,-3,-1,2,-6,52,2
7275642909,7,28,9,7,5,0,-96,-2
7275642909,-5,-8,-2,0,-2,15,48,5
7275644372,-6,-26,-10,-7,-8,-14,-44,-15
7275644372,2,-25,0,-1,0,-2,0,9
7275656516,11,-3,1,-3,-4,4,99,-7
7275656516,-2,-12,11,6,2,8,-21,4
7275665416,-17,-9,-3,-4,-2,-7,-27,-17
7275665416,8,3,-2,0,-2,-10,-55,-3
7275679672,-7,1,-9,-6,-3,-2,-31,1
7275679672,11,0,3,5,1,-5,16,-3
7275686373,21,3,-4,-3,-4,1,34,8
7275686373,-27,-7,-1,0,-4,-3,-22,-9
7275702723,-2,-13,-6,-3,0,-5,4,-2
7275702723,-5,3,0,0,1,-1,4,-2
7275704379,-12,-24,-9,-3,-6,-2,-17,-5
7275704379,21,-3,-1,-8,-3,-5,-14,2
7275716941,1,3,-3,-9,-6,-1,-8,3
7275716941,-1,39,17,20,9,-3,11,0
7275725542,26,1,-17,-9,-3,0,-13,11
7275725542,-8,-16,12,28,-3,3,12,-6
7275739717,-23,-15,-9,-35,0,1,15,-3
7275739717,27,76,-11,-14,1,-6,-7,1
7275746514,-71,-51,14,11,-7,-1,4,-14
7275746514,19,2,-20,-5,-1,-1,-2,12
7275762888,33,72,31,4,-13,-8,-4,2
7275762888,-43,-80,-44,17,-10,-1,-5,-9
7275764424,31,77,4,-29,22,6,-2,10
7275764424,-5,-25,-23,-25,4,1,-4,-8
7275776543,-40,31,27,44,-3,-5,3,-7
7275776543,-9,-96,-23,-16,-8,-11,-4,-7
7275785396,48,78,25,17,5,9,0,11
7275785396,-39,-29,-1,-1,-27,-14,-12,-13
7275799765,33,3,-31,-16,15,10,27,5
7275799765,-13,22,29,0,-7,-4,-28,3
7275806456,-16,-80,-15,1,0,-11,-19,-20
7275806456,33,81,31,0,6,4,92,4
7275822819,-11,-22,-12,9,3,10,-15,15
7275822819,-16,-3,-13,-24,-6,3,12,-8
7275824391,0,29,5,15,-8,-10,-22,5
7275824391,-12,-1,5,6,5,-8,-34,-9
7275836529,11,-20,-10,-16,-12,-7,10,-1
7275836529,11,20,12,22,11,-4,15,-6
7275845384,-5,-7,-3,11,-5,4,23,-2
7275845384,-4,-1,9,-3,5,2,-52,13
7275859676,-6,-10,1,25,-2,-10,-6,-7
7275859676,11,35,-6,-18,-11,-6,-15,-6
7275866463,-10,5,-4,-26,-7,-10,1,-4
7275866463,4,-12,6,14,7,10,15,11
7275882849,-18,-27,7,-3,-1,3,-22,-14
7275882849,20,11,-20,-16,20,22,1,17
7275884393,-6,-19,0,5,-6,-10,7,-7
7275884393,2,2,-14,20,1,4,14,-1
7275896516,-3,-13,-20,-53,-11,-9,-12,-1
7275896516,5,7,10,31,-4,-6,8,-8
7275905391,-5,-19,-15,3,13,9,-4,5
7275905391,9,23,0,-9,-6,0,-6,1
7275919605,-19,-24,7,5,-8,-1,10,-12
7275919605,0,-6,13,0,-10,-11,-10,-5
7275926513,2,-2,-23,-28,-3,5,8,7
7275926513,-2,8,8,6,2,-2,3,-8
7275942868,7,4,-8,4,-3,-4,0,1
7275942868,-5,-1,3,-25,-2,-6,10,-1
7275944413,-6,-6,1,-4,-7,3,-18,3
7275944413,-2,2,7,10,4,0,-10,-4
7275965407,5,-3,-12,-11,11,4,-7,2
7275965407,-5,-6,-6,-2,-8,-2,6,-1
7275966916,7,12,7,8,3,5,11,3
7275966916,-3,1,-2,-14,-3,0,-17,-1
7275979027,-7,-2,8,9,-3,-2,-1,0
7275979027,3,-2,7,8,3,-2,2,-4
7275987906,-9,2,9,3,2,0,-11,4
7275987906,3,-7,-4,-9,-5,-4,-4,-2
7276002920,9,4,-9,1,0,-5,-10,4
7276002920,0,-1,2,2,4,5,0,-5
7276004369,-4,-2,3,7,-1,-1,-33,6
7276004369,-4,1,4,-4,-1,4,8,-1
7276025362,7,5,-7,0,-4,-5,-19,-1
7276025362,-8,-6,2,-4,-7,-8,-13,-3
7276026942,5,20,1,6,2,0,8,0
7276026942,-5,3,-4,-7,-5,-5,-6,-4
7276039079,8,7,-1,-2,2,5,2,-1
7276039079,-4,8,0,0,-3,-9,-5,3
7276047901,4,-7,3,4,1,5,21,2
7276047901,-2,-16,-11,-13,-6,-5,-36,2
7276062876,-8,-18,4,7,3,0,7,-1
7276062876,-9,-22,-5,-3,-1,0,5,-4
7276064390,3,-15,1,-3,-6,-3,2,-3
7276064390,0,-7,-9,-8,-4,1,9,-1
7276085346,4,2,2,5,5,-3,4,2
7276085346,-4,-4,3,1,1,0,-8,4
7276086940,15,1,-2,-4,-5,-3,1,-3
7276086940,-14,6,6,2,1,-1,3,-5
7276099620,-9,-2,-1,0,2,0,-19,-3
7276099620,11,4,0,-4,-1,1,16,4
7276106546,-6,6,3,6,-2,-1,7,-2
7276106546,-12,-7,-16,-14,-3,-2,-3,-1
7276122856,-12,-2,-4,1,0,-1,8,-5
7276122856,14,8,-1,0,-3,-5,-2,3
7276124338,9,3,-2,-3,-3,-3,3,-5
7276124338,-8,-3,1,10,4,-1,19,-2
7276136517,11,2,-3,-9,-5,-4,1,3
7276136517,-16,-10,3,-4,-7,-2,-7,-5
7276145415,2,9,6,16,0,-3,6,2
7276145415,-10,-5,-7,-4,4,4,0,-6
7276159672,6,6,-6,1,9,7,2,-1
7276159672,5,8,7,-3,-7,0,8,3
7276166513,9,7,-4,4,0,-4,-2,-4
7276166513,-17,-16,-2,-12,-3,-8,-7,-1
7276182148,-10,-15,-6,1,-5,-6,1,-2
7276182148,8,-2,3,10,-4,2,-5,-3
7276189043,-33,-6,-3,-17,2,0,3,-5
7276189043,29,10,5,4,-7,-2,-5,4
7276196417,8,8,-1,-5,2,-4,-12,-7
7276196417,5,5,-1,-4,2,3,4,2
7276205387,4,3,0,5,-1,1,-5,-3
7276205387,-23,5,-7,-3,0,0,10,2
7276219558,-6,-18,5,-2,-6,-2,10,-1
7276219558,3,10,-2,13,2,-6,-20,-1
7276226440,21,20,7,-5,0,4,2,4
7276226440,17,26,-10,-1,7,8,5,3
7276242623,-37,4,1,0,-8,-7,-8,-7
7276242623,-8,-44,-12,-9,-4,-2,12,0
7276248988,-2,23,-5,-2,1,-6,0,-6
7276248988,15,-4,8,6,9,10,-1,0
7276256478,-2,3,6,3,-1,1,-2,1
7276256478,-9,10,8,16,10,5,6,-4
7276271426,-18,-24,-25,-38,-11,0,1,2
7276271426,6,-23,-3,5,-14,-16,-12,-5
7276279619,20,1,-1,-1,4,0,8,7
7276279619,10,3,6,1,4,2,-3,2
7276286505,-13,-20,-10,-20,-6,-5,-8,-10
7276286505,7,3,8,12,7,3,1,2
7276302143,-6,-6,-12,-8,6,10,9,4
7276302143,0,15,15,44,1,-6,-2,-3
7276309071,-11,-24,-1,-47,-9,-10,-7,-4
7276309071,-5,-4,1,-68,-4,14,11,2
7276325365,-8,-15,-21,-1,-18,-11,-6,-3
7276325365,-3,6,36,54,13,6,4,-5
7276326936,13,-9,-34,-45,10,7,9,10
7276326936,-11,-11,22,38,-2,-3,-4,-8
7276338933,-2,4,21,-20,-8,3,-1,-3
7276338933,15,16,-22,-17,-7,-7,0,5
7276347939,-29,-16,31,41,-3,3,0,-7
7276347939,-8,-5,-1,2,2,-5,-5,-2
7276362183,19,24,3,21,1,-3,0,0
7276362183,-25,-13,7,-4,-5,-9,-7,-12
7276369074,-4,-18,10,0,-6,-2,-1,0
7276369074,6,9,-18,-8,2,-4,-3,0
7276385398,-11,-13,17,24,8,3,3,1
7276385398,1,-9,-27,-49,-6,0,0,-5
7276386818,7,-1,-12,7,7,2,1,4
7276386818,9,14,8,18,-1,1,5,3
7276399036,-4,-10,-4,-2,-10,-11,-11,-7
7276399036,2,7,-18,-23,-1,-1,4,4
7276407894,-5,3,9,19,-1,4,1,-1
7276407894,3,-8,-3,9,2,-3,-7,1
7276422160,12,16,-6,-5,2,-2,6,2
7276422160,1,-11,-10,-22,-6,3,-4,-1
7276429004,-20,12,-1,17,-3,-6,-8,-6
7276429004,-11,-1,-6,-9,-5,-6,0,-2
7276445335,-1,-1,6,-3,8,-6,10,4
7276445335,4,3,0,-1,-4,11,2,-4
7276446947,14,8,1,15,6,2,-10,5
7276446947,-4,3,-5,-13,-5,-4,-7,-5
7276458983,7,-4,-5,2,1,-4,-7,1
7276458983,2,-11,-2,-3,-2,1,-17,3
7276467913,13,-7,0,0,-5,-6,5,0
7276467913,-12,-8,-4,-1,1,-3,-9,-1
7276482138,-12,-8,3,12,14,15,-4,4
7276482138,-6,-7,-1,-7,-2,-8,4,-4
7276489000,14,1,-8,-2,-4,-1,-4,0
7276489000,12,-10,-2,-2,-4,-5,-12,-1
7276505333,-30,-17,0,-7,-4,-2,8,-7
7276505333,-3,-17,0,-2,0,-1,13,-2
7276506818,-9,1,-2,6,-2,-1,3,2
7276506818,0,-7,-2,4,0,1,16,-1
7276519057,10,5,-7,-6,-5,-11,-18,-2
7276519057,8,18,-1,-4,1,9,6,3
7276527915,3,11,3,6,-1,-7,-32,-2
7276527915,-19,-7,0,2,-1,13,5,0
7276542208,12,7,-4,-5,-2,3,-1,-2
7276542208,-5,16,2,-3,-1,-3,-1,-2
7276549011,-8,43,14,1,-2,-3,9,1
7276549011,-12,-65,-17,-3,-1,-9,-7,-15
7276564468,-7,31,-16,-8,2,5,1,6
7276564468,23,72,14,-1,-2,-4,3,6
7276572931,-21,-71,-4,0,-7,-2,4,-8
7276572931,-22,-12,7,2,-3,-6,-6,-9
7276578956,5,14,-26,53,-17,-4,4,-9
7276578956,-8,-50,-30,-97,14,-2,-4,5
7276587917,38,47,12,15,7,8,10,6
7276587917,-46,-44,6,55,-22,-17,-17,-17
7276602231,31,18,18,-12,14,10,2,4
7276602231,-37,8,-8,12,-10,-8,-6,-11
7276608910,47,-8,-21,-61,1,4,7,11
7276608910,-43,24,2,-20,-14,-9,-7,-4
7276625367,-36,-28,-42,-58,1,-2,-5,-14
7276625367,15,-17,15,69,-9,-4,14,6
7276626993,7,0,7,-4,21,0,-10,-3
7276626993,44,48,28,9,-3,17,-2,8
7276639071,-21,-13,4,-11,-6,-5,0,-2
7276639071,-12,20,8,-3,5,7,-8,-3
7276647940,8,-11,-1,24,-22,-14,1,9
7276647940,9,28,-7,-18,8,-1,-33,5
7276662164,23,22,24,14,8,9,3,2
7276662164,-1,-32,-14,0,-5,-5,-4,3
7276668993,-13,27,12,14,-11,-6,0,-5
7276668993,2,0,-9,-11,7,-5,-13,-6
7276685336,18,-7,4,-8,4,-4,-26,-3
7276685336,-2,12,0,6,4,-2,20,4
7276686820,-28,-12,-17,-7,-7,3,-6,-8
7276686820,21,12,-4,-2,2,0,28,5
7276698969,-13,-26,-8,-2,2,2,2,2
7276698969,-4,-12,15,38,3,9,-3,-3
7276707891,-21,-24,2,17,7,-1,1,-7
7276707891,17,-11,11,-18,4,8,15,1
7276722140,11,5,-2,21,-1,-5,-6,-2
7276722140,-12,-18,-9,3,-6,-9,-2,-4
7276728981,-13,-13,-7,-4,-4,-5,9,-4
7276728981,16,12,-5,5,-2,-6,0,1
7276745365,6,16,9,7,-11,-5,4,0
7276745365,-8,-8,-1,-18,4,-2,-6,-2
7276746925,0,-5,12,24,-4,-1,-4,-4
7276746925,5,21,-10,0,6,6,14,1
7276758945,-31,-26,-3,-41,2,1,4,-4
7276758945,15,-1,6,12,1,0,-4,2
7276767913,5,22,11,3,-8,1,7,2
7276767913,0,1,-13,12,13,1,-2,-2
7276782188,8,-5,-20,-7,-8,-4,5,4
7276782188,1,8,-7,-11,-7,-5,-8,-4
7276788982,-4,-1,0,2,3,4,-2,0
7276788982,5,5,0,-18,-9,-10,-1,-1
7276805314,-5,0,7,9,-3,-9,1,-1
7276805314,-3,1,-7,-6,6,18,11,-4
7276806820,0,6,-9,-3,3,-7,-6,1
7276806820,2,-5,4,4,0,4,4,2
7276818989,-4,-9,7,0,0,1,-4,-3
7276818989,-3,-3,-1,-7,-7,-8,-3,0
7276827917,5,5,2,-4,-3,-3,6,-6
7276827917,-8,6,0,1,5,9,10,8
7276842212,8,8,1,4,0,-9,-5,3
7276842212,-11,-1,-5,-7,-2,6,-1,-4
7276848970,-4,-4,-10,-5,1,0,10,-2
7276848970,-3,-10,-1,-9,-7,-6,2,-3
7276865341,-6,-17,-5,2,-6,-1,-7,-3
7276865341,2,-20,0,0,-1,-6,-15,0
7276866922,-4,-23,-6,-12,-2,-5,-26,-1
7276866922,12,-10,-4,-3,0,0,9,1
7276878857,-4,0,11,2,0,1,7,-2
7276878857,-11,-5,1,-4,-4,-8,-10,-5
7276887897,-5,-10,-15,-9,0,2,-3,-3
7276887897,-7,3,-1,-3,-2,0,-3,3
7276902064,1,-1,2,2,-1,3,-5,1
7276902064,9,2,-2,-4,-2,-3,16,-2
7276908978,6,6,-3,2,2,4,2,2
7276908978,1,1,4,-2,-3,-3,-8,-3
7276925242,11,5,8,14,4,4,15,8
7276925242,-8,-2,-4,-7,-4,0,-8,-6
7276926813,18,11,9,11,3,0,2,-5
7276926813,-30,-2,-4,-11,1,2,-2,2
7276939032,-5,-1,-3,1,3,0,-5,-6
7276939032,5,-8,0,4,-1,-1,0,7
7276947824,-21,4,1,8,-2,0,4,2
7276947824,23,20,-2,-14,-8,-6,0,-1
7276962116,10,-2,-3,-21,-5,-1,2,3
7276962116,5,18,7,30,3,-2,-3,0
7276969016,14,7,-5,3,0,-3,-4,0
7276969016,-10,-9,-30,-44,6,3,0,-5
7276985371,4,-3,8,24,1,2,1,0
7276985371,-18,-2,7,21,-6,-4,-6,-8
7276986944,7,-44,4,-29,1,0,2,4
7276986944,7,49,-4,5,-8,-5,-4,-1
7276998960,-17,-2,-9,-19,-1,-6,-4,-12
7276998960,-16,-31,-22,-2,0,0,6,-3
7277007915,4,9,8,1,-7,-2,17,2
7277007915,15,-11,5,19,3,-5,-34,0
7277022197,5,-1,8,3,-3,1,0,-6
7277022197,-2,38,15,-10,-5,-3,5,-3
7277028959,-15,-23,-10,-30,7,8,-17,-2
7277028959,4,14,2,21,7,2,17,3
7277045310,27,26,2,0,-14,-8,-4,3
7277045310,-5,-17,-3,-9,-3,-6,-16,0
7277046902,-11,31,-5,-17,2,6,7,3
7277046902,-8,-11,2,12,-2,1,-6,-3
7277058984,-18,-18,3,11,-7,-3,-17,-4
7277058984,26,8,1,-21,3,-3,4,9
7277067820,10,9,-1,13,-5,-6,1,-4
7277067820,-27,-26,5,9,2,1,-1,-6
7277082101,-3,-6,-10,-22,-6,-4,0,-3
7277082101,8,-8,-5,-11,-5,-2,1,-9
7277088986,-10,-7,1,11,6,5,-11,-2
7277088986,1,-24,4,-8,-5,-7,11,0
7277104680,8,3,6,20,5,5,3,7
7277104680,4,-3,-5,-7,9,6,6,5
7277111478,-13,-11,-8,9,2,-2,-8,-6
7277111478,8,-5,-4,8,-14,-10,-6,-4
7277118977,3,10,-4,-15,0,-5,4,3
7277118977,-10,-14,5,-15,-6,11,-6,-7
7277127812,-4,-2,-18,-16,5,7,11,0
7277127812,11,4,6,25,0,-1,6,5
7277151021,-2,4,-17,-12,4,-6,-1,-3
7277151021,5,9,-11,-11,-19,-7,-5,-1
7277153052,-9,-4,5,2,-1,-12,-6,-7
7277153052,-11,-10,13,-2,1,4,4,-3
7277165862,-5,-4,20,11,3,6,2,0
7277165862,8,6,-19,27,9,6,0,1
7277171609,0,17,-6,-25,-10,-6,1,0
7277171609,5,0,0,3,-6,-6,-5,2
7277187083,-1,1,5,20,-5,-8,-6,-3
7277187083,4,12,-10,-15,6,0,0,1
7277187882,-10,-16,26,37,8,8,5,-1
7277187882,2,-4,-16,-18,10,5,4,-1
7277202967,-14,-21,-23,-49,-22,-14,-9,-8
7277202967,1,0,-3,26,13,6,5,6
7277208949,5,3,12,2,-1,1,1,2
7277208949,-7,-4,6,-1,1,2,0,-2
7277223857,-2,10,13,4,-4,-5,-3,0
7277223857,2,10,4,-15,-16,-20,-13,-6
7277231286,4,16,2,17,8,6,4,5
7277231286,-4,-16,-13,-8,-3,-3,-2,1
7277247124,-6,19,2,-13,-2,0,-3,-4
7277247124,0,8,2,7,-1,-7,-3,-2
7277247896,0,6,-8,-9,-11,-10,-9,-3
7277247896,5,21,-6,-12,-5,8,7,0
7277262890,2,7,7,23,19,13,10,2
7277262890,-2,-17,3,3,10,9,-1,6
7277269004,0,13,-2,-6,-8,-15,15,-11
7277269004,3,-15,-6,-11,-2,-8,-33,3
7277284010,1,-17,2,1,-5,-2,-5,1
7277284010,-4,-23,6,-7,-6,-2,-1,-4
7277291475,10,-18,-3,-4,0,2,9,4
7277291475,-14,-6,-2,1,-3,-15,4,-4
7277307103,6,-15,0,7,8,19,5,1
7277307103,3,-19,5,0,0,-3,-5,1
7277307842,-12,-28,-12,-5,-7,-4,-12,-2
7277307842,-6,-19,6,3,3,1,4,-3
7277322857,0,-21,-7,-2,1,-10,-8,4
7277322857,3,1,5,-5,-5,-3,9,0
7277328859,-3,1,1,1,-2,6,-5,-2
7277328859,18,10,1,0,-2,-1,-16,5
7277343961,-11,22,-5,-2,1,3,19,-4
7277343961,7,16,-3,-1,0,3,3,1
7277351434,1,13,-3,-1,0,-6,-1,4
7277351434,-9,6,0,1,3,6,0,-8
7277367088,13,12,1,2,-1,-1,-7,3
7277367088,-49,7,14,8,-1,-3,-5,-6
7277367794,15,-8,-5,-1,2,0,2,-2
7277367794,3,-4,-9,-17,-9,5,31,4
7277382814,6,32,28,35,8,-10,-28,-5
7277382814,28,-6,-29,-53,-19,14,6,4
7277388937,-34,37,5,7,22,6,-10,-13
7277388937,13,-16,-18,-44,-9,-7,3,4
7277403863,-25,-25,-18,28,-23,-7,2,-7
7277403863,6,-53,26,-37,33,10,5,2
7277411411,1,-45,7,67,8,4,-10,0
7277411411,-20,63,-29,-57,-2,7,7,-3
7277427098,50,73,14,29,-3,0,-4,5
7277427098,-40,-45,29,-20,-5,-17,-17,-19
7277427855,6,-16,-18,-36,-28,-10,1,4
7277427855,-23,-101,-59,-24,5,-8,-3,-11
7277442939,-27,56,-5,17,-10,0,7,1
7277442939,46,48,-9,-31,8,12,5,11
7277448918,0,45,27,37,4,2,-12,2
7277448918,6,8,14,19,-3,0,-16,3
7277463929,14,-16,-15,-33,-6,-5,12,-5
7277463929,-14,8,17,58,-9,-12,-6,-4
7277471461,-1,3,-15,-43,-3,-2,-17,-2
7277471461,5,10,20,31,1,0,30,-1
7277487125,-10,-36,-4,-28,5,-7,-6,0
7277487125,-2,35,-11,10,-5,17,-8,-4
7277487832,-12,-13,-5,-10,-1,-9,3,-5
7277487832,19,28,27,21,5,3,-8,6
7277502914,-4,-22,-4,-3,-18,-9,-1,5
7277502914,-9,-10,-21,-14,4,-9,4,-7
7277508998,2,-23,-4,5,20,19,-10,-5
7277508998,-10,-15,21,36,-2,4,6,-4
7277524037,-5,-11,-18,-27,13,1,10,2
7277524037,-2,0,-5,37,4,2,-9,3
7277531439,5,1,3,-2,-19,-6,2,-3
7277531439,2,13,10,14,22,3,-1,-4
7277548410,-10,-28,-4,2,2,11,7,-2
7277548410,-1,6,-10,13,-6,-9,1,0
7277549227,-11,-6,5,-7,-2,3,11,-2
7277549227,16,-2,-7,-2,-14,-11,-4,-1
7277562806,-6,-9,-5,-8,-5,-4,-11,-7
7277562806,6,-1,10,10,-6,-1,3,2
7277568926,-3,5,-23,-41,-7,-10,3,0
7277568926,2,10,29,-4,-4,1,-6,1
7277583978,-12,-33,-12,-32,15,5,-4,-3
7277583978,4,22,-11,-26,-15,-3,4,3
7277591486,-1,19,-7,10,0,-5,-1,0
7277591486,12,21,-12,8,-5,-2,0,3
7277607086,-1,-3,6,2,5,6,-2,-3
7277607086,-3,4,4,12,0,-4,-6,2
7277607875,9,12,8,15,4,-2,2,1
7277607875,7,17,-3,-4,2,7,3,3
7277622831,0,2,6,-3,5,3,2,2
7277622831,-3,-4,-7,4,-3,-6,-7,-3
7277628959,-12,-15,10,8,-4,-4,-4,-7
7277628959,0,12,8,5,3,-5,-2,1
7277643949,2,-2,-2,-12,-4,0,-5,3
7277643949,13,2,9,10,6,-4,8,0
7277651342,-1,6,-7,-6,3,14,9,1
7277651342,-18,-11,-10,-9,-11,-3,-1,-12
7277667140,-1,-4,1,8,3,1,2,3
7277667140,1,17,-6,-2,-8,-8,-22,1
7277667790,6,12,3,-3,3,-1,23,4
7277667790,-13,-9,-3,-2,0,-1,-8,-7
7277682803,3,-6,-3,3,1,4,0,-3
7277682803,-2,-18,2,4,-5,-3,-6,-4
7277688973,-4,-23,1,-21,-10,-6,-1,1
7277688973,-2,-20,12,24,7,2,-3,-5
7277703841,0,-6,-2,-1,-8,-3,8,0
7277703841,-8,-13,-17,-9,7,-1,-21,-3
7277711347,4,-3,0,10,2,-9,-4,1
7277711347,1,4,-4,-10,-5,8,2,-1
7277727108,-1,8,0,-1,-2,-4,-7,-2
7277727108,-7,-8,2,18,3,4,6,-4
7277727774,2,1,-5,-23,-8,-4,-5,-2
7277727774,-1,-5,3,12,2,-6,-9,1
7277742872,3,-2,3,11,2,-1,-7,-1
7277742872,-11,-6,-2,-6,1,3,11,-3
7277748956,-1,-3,-31,-25,-5,0,-6,0
7277748956,-9,-7,-8,-5,-3,-7,0,-2
7277763946,-2,5,6,3,0,6,2,-3
7277763946,5,4,2,11,4,0,10,-2
7277771352,12,0,1,-2,-3,1,-1,1
7277771352,-10,5,-7,-10,-1,-2,-8,-2
