timestamp,emg1,emg2,emg3,emg4,emg5,emg6,emg7,emg8
12400808669,-5,-9,-1,1,0,3,2,-1
12400808669,3,5,1,4,3,0,1,-1
12400809541,1,-1,-2,-3,-4,-1,0,0
12400809541,0,4,6,4,-7,-7,-5,-2
12400812808,6,5,-3,-6,11,6,5,2
12400812808,-8,-8,-1,-4,-2,-2,-2,-1
12400813704,-6,-13,0,1,1,-2,-2,-2
12400813704,-1,-2,-5,-7,-6,-2,0,0
12400819968,0,0,-3,1,-7,-5,-1,-4
12400819968,3,2,-2,1,0,3,-8,0
12400828088,4,9,5,3,-1,1,5,-2
12400828088,-3,-3,-8,-7,-2,0,-1,-3
12400834419,-3,-4,-4,-2,3,-2,0,-3
12400834419,1,-6,-4,9,2,-1,-1,0
12400849436,8,1,0,-3,-1,-3,-3,-1
12400849436,-5,5,1,-8,-3,0,0,-4
12400858029,-3,4,6,13,-3,-1,0,2
12400858029,6,7,2,16,8,-1,0,0
12400880105,-3,-15,0,-16,5,3,0,0
12400880105,6,8,9,0,0,0,2,0
12400880959,-9,0,10,0,-2,-4,-4,-3
12400880959,-9,-13,-28,-8,-5,-3,-2,-3
12400928531,-3,-13,-68,-13,-4,-2,-2,-3
12400928531,-3,10,-2,6,4,0,1,-2
12400929243,9,-5,-16,-5,-3,-4,-2,0
12400929243,13,11,0,-1,-1,-2,1,3
12400932315,-4,-12,19,-4,-4,-5,-7,-1
12400932315,-10,-12,-7,1,1,2,3,-4
12400933056,-10,-2,1,3,3,1,3,-4
12400933056,5,3,6,-1,-2,0,-2,2
12400939136,6,15,9,2,1,1,-1,-3
12400939136,-2,4,-2,-8,-3,-3,-3,-4
12400948069,4,4,14,4,-4,0,2,4
12400948069,-9,-6,-5,-12,5,3,4,0
12400954260,1,-8,3,14,-1,1,0,0
12400954260,3,-8,2,-9,-3,-3,-2,0
12400969064,6,6,16,11,10,1,-2,-4
12400969064,-10,-22,-31,-8,-8,-6,-5,-4
12400976661,-2,7,-6,-2,3,0,0,2
12400976661,-10,-27,-11,7,-11,-9,-4,-7
12400985656,-2,-5,-6,-10,12,9,3,0
12400985656,4,16,42,-3,-5,0,3,-1
12400999188,-3,-7,-35,-4,2,0,-6,-3
12400999188,14,1,15,1,-14,-5,5,2
12401008230,-36,4,-9,10,5,-8,-28,-14
12401008230,10,12,-2,3,15,11,54,25
12401014190,27,27,20,-2,-7,5,6,9
12401014190,-3,-14,-1,1,4,3,12,4
12401029181,-2,-19,-13,-8,-1,1,9,-5
12401029181,-12,7,7,-2,-6,-6,-24,-12
12401036558,4,16,17,14,-5,-8,-9,0
12401036558,8,17,-12,-6,0,-20,7,0
12401045575,-4,-2,4,-6,-20,8,-12,1
12401045575,-6,-17,-12,3,13,7,-11,-5
12401059637,-7,-15,9,-15,23,4,4,-2
12401059637,-5,-8,-8,2,-3,9,-14,-3
12401068219,0,4,-3,-14,-10,10,9,0
12401068219,11,6,3,21,14,-19,-9,4
12401074097,-1,3,1,-17,-16,4,7,-4
12401074097,-8,4,9,-2,12,-3,-6,-2
12401089284,7,-4,1,-3,-21,2,5,7
12401089284,-6,-8,-16,-6,6,-4,-1,-4
12401096763,-6,-2,2,1,-2,-6,-12,-2
12401096763,-4,1,-3,-7,13,10,-12,-1
12401105618,4,-2,2,10,-14,-17,10,0
12401105618,-1,-2,-1,10,8,33,13,-4
12401119148,-10,-8,-1,-4,-15,-20,-20,-11
12401119148,4,20,16,-1,-41,-21,-11,0
12401128130,2,-15,-10,3,45,21,26,4
12401128130,-7,-1,2,6,-14,-25,-9,-7
12401134244,11,9,18,6,14,15,6,8
12401134244,7,6,-11,5,-6,-2,5,3
12401149251,-6,-7,-7,-29,-6,-18,-13,-4
12401149251,-4,-5,-6,25,-2,-14,-13,-2
12401156684,-16,-21,12,21,-16,9,11,-7
12401156684,-5,0,17,-30,7,10,-5,-6
12401171784,6,8,-15,42,34,-4,-4,4
12401171784,3,4,9,-43,-26,1,-4,-1
12401179956,-2,-6,-13,47,21,-7,0,-1
12401179956,-5,-9,2,-24,2,-2,2,1
12401186719,2,2,6,21,-9,-1,-12,-3
12401186719,-5,0,-6,1,2,0,-1,-1
12401194195,-2,-1,0,-3,0,1,4,0
12401194195,4,-2,-7,-9,-2,2,-1,1
12401209229,0,1,9,-13,-7,1,2,-2
12401209229,-9,-5,-5,-2,-8,-9,-10,-6
12401216679,-1,-3,3,-16,-4,-3,2,1
12401216679,2,0,-5,22,14,11,2,-1
12401231730,1,3,2,-16,-12,-6,-4,-1
12401231730,-1,-6,-8,8,1,-2,-2,-2
12401239956,-1,1,2,-14,-3,-8,-7,-3
12401239956,-2,0,-4,3,1,4,8,-2
12401246664,-3,1,-7,-2,-3,3,1,-3
12401246664,7,1,0,-9,-5,2,-7,2
12401254272,5,9,-3,-6,1,3,13,0
12401254272,-11,-10,-4,8,2,-10,-29,-2
12401277404,-7,-6,1,-6,-6,6,17,-4
12401277404,0,-5,-4,1,2,6,0,-2
12401278074,-1,-4,-4,-12,-6,-5,5,0
12401278074,-2,4,-2,10,1,-1,-17,-1
12401291637,7,10,6,-5,-2,-8,-13,-3
12401291637,-12,1,-3,-2,3,4,11,-1
12401299953,2,1,7,2,4,-2,-18,-2
12401299953,0,-11,-12,-8,-8,-3,10,1
12401306802,9,15,9,-3,-5,-4,-8,-3
12401306802,4,7,-7,-3,-7,-6,-5,-3
12401314139,-18,-1,9,5,13,8,7,0
12401314139,-1,-19,21,7,3,3,9,1
12401329157,-6,11,-2,3,-4,-4,-3,6
12401329157,-8,-23,-29,-20,-7,-7,-6,-9
12401336630,7,14,-22,-14,-12,-5,-4,-3
12401336630,3,-41,-13,-2,5,5,5,2
12401351663,-7,-6,-5,-1,-3,-3,-2,-5
12401351663,2,-6,26,13,-11,-1,-4,4
12401359636,-10,9,-2,12,-6,-7,-7,-6
12401359636,12,3,2,-31,-16,-1,4,-1
12401368113,-9,45,-7,45,42,7,-1,1
12401368113,5,-33,1,-12,-1,1,0,0
12401374104,8,6,10,-36,-27,-7,-4,-2
12401374104,8,-4,10,19,16,5,7,0
12401389180,-15,-32,-24,-17,-4,-7,-4,-3
12401389180,-22,49,-23,-21,-10,6,-2,-7
12401396708,6,-37,-12,26,3,-9,2,8
12401396708,-1,52,3,-8,0,-4,-4,-5
12401411680,3,-30,-1,-9,-9,4,-1,1
12401411680,7,-6,3,1,-6,-12,-11,-2
12401419887,-16,-12,4,-6,8,12,10,-9
12401419887,-5,21,-16,14,-2,-29,0,-1
12401426730,-8,-7,-5,-29,-45,17,20,-4
12401426730,9,-6,17,21,42,-4,-45,-6
12401434218,2,3,3,-5,-10,29,8,4
12401434218,1,0,-3,12,11,-12,22,0
12401449199,11,8,12,-2,-18,-25,11,3
12401449199,-8,-8,-2,-13,-23,-36,-53,-3
12401456594,1,-2,-9,-11,-3,14,43,5
12401456594,-18,-2,-10,8,16,40,4,-5
12401471657,9,-11,1,-12,42,-8,-7,0
12401471657,9,15,-1,21,0,13,27,5
12401479763,5,7,9,16,-13,-19,-15,1
12401479763,-3,-6,-6,-15,-19,-11,-14,-1
12401486690,0,-5,4,27,30,6,2,-2
12401486690,-1,-2,-3,-8,-1,-8,11,0
12401502363,-4,-4,-8,-50,-24,1,-13,-5
12401502363,0,2,7,35,10,1,3,1
12401509067,1,-7,-7,-30,-13,-2,-16,1
12401509067,-6,-6,-7,20,13,15,27,3
12401516689,-4,2,2,-6,-7,-7,-14,-3
12401516689,-2,-4,-7,-12,-19,-9,-9,-2
12401531772,4,3,-7,30,26,6,-4,1
12401531772,5,4,16,-1,-7,9,14,1
12401539953,-8,-3,-5,13,21,3,0,-4
12401539953,3,3,11,-4,3,10,-3,1
12401546763,-8,-9,-13,-27,-15,-11,-10,-5
12401546763,-6,-8,13,6,-19,-9,8,-3
12401562383,-1,-5,-13,16,40,11,3,-2
12401562383,4,8,3,-9,-11,9,-1,1
12401569166,2,1,5,-25,-31,-5,-3,-2
12401569166,3,3,-8,-1,8,7,3,1
12401576725,-9,-13,0,-9,1,-11,-6,-3
12401576725,0,1,-11,20,4,-1,-5,0
12401591710,2,3,2,-3,-11,0,-2,1
12401591710,-8,-4,2,-10,0,7,2,-2
12401599944,7,6,5,16,12,-8,-6,1
12401599944,-2,-3,7,-5,-5,0,2,-2
12401606773,-5,-9,1,3,-4,-3,-7,-3
12401606773,1,8,-3,-12,0,-11,-5,-2
12401622316,-1,-6,-9,-10,-6,-2,-3,-2
12401622316,-9,-10,1,6,1,0,1,0
12401629099,1,3,5,11,2,-2,-2,1
12401629099,1,0,-5,2,-2,3,-1,-1
12401636583,5,10,14,-5,-4,-1,-3,-1
12401636583,3,3,5,4,3,-5,-1,0
12401651620,-12,-17,-5,-3,1,1,1,-4
12401651620,2,-4,-19,-8,-5,2,1,0
12401659762,1,1,-3,3,-8,-7,-8,-2
12401659762,-2,-1,-13,-14,0,0,1,-2
12401666606,-1,7,2,6,-4,0,-1,1
12401666606,0,-5,1,-15,-3,0,-1,-1
12401682298,8,3,4,12,0,-5,0,3
12401682298,-3,-1,1,-7,-2,-7,-9,-5
12401689158,-2,2,-4,0,-1,-6,7,1
12401689158,-5,2,0,8,3,-1,1,-2
12401696602,-4,0,3,-5,-1,-4,-2,1
12401696602,-2,-4,2,-4,-2,0,-3,-1
12401711598,6,17,21,5,-2,3,-1,2
12401711598,5,-12,-8,4,3,6,4,4
12401719770,-7,-11,-7,-16,-5,0,-1,-5
12401719770,-11,-8,-14,4,8,4,0,-1
12401726574,7,15,20,-4,-4,-3,-3,-2
12401726574,14,1,-9,-6,-2,4,-1,1
12401742244,-13,6,13,9,1,1,0,3
12401742244,1,-12,-4,-11,-10,-5,-5,-5
12401749038,-7,-9,-9,21,0,3,-3,-3
12401749038,-3,7,-19,-21,2,-3,-1,-3
12401756547,18,31,6,2,7,1,0,0
12401756547,-8,-22,-12,1,2,-2,-2,-3
12401771588,-11,0,7,-16,-6,-2,-1,-2
12401771588,-7,-30,-1,-2,8,0,0,0
12401779813,-11,-50,-5,9,-4,-1,-1,0
12401779813,10,35,16,-3,-5,-10,-8,1
12401786690,17,1,-18,-1,-8,0,-4,-1
12401786690,-13,5,2,-12,7,5,4,1
12401802333,-7,-7,3,1,3,-2,2,-2
12401802333,16,18,11,-8,-2,2,1,-2
12401809055,-3,10,-2,10,-2,-6,-2,0
12401809055,11,33,24,-1,-13,-7,-4,-3
12401816558,-30,-47,-14,-20,-9,-3,-2,-5
12401816558,-12,-27,3,30,15,9,4,2
12401831575,2,-16,-14,-6,5,-3,7,4
12401831575,2,7,5,4,-3,4,1,-1
12401839754,10,25,-5,-5,6,8,8,-2
12401839754,-1,12,-4,-2,-3,17,18,3
12401846730,1,-11,-2,-15,-4,6,-3,-1
12401846730,-3,2,12,5,-26,-15,-3,2
12401862401,10,19,-8,7,36,2,-3,3
12401862401,-7,0,-3,2,23,-8,-1,-2
12401869180,5,-1,3,4,-11,-8,7,8
12401869180,-2,-4,-4,11,-8,9,-5,-4
12401876693,-1,6,-4,-14,-38,-10,-14,-4
12401876693,1,-8,4,4,4,3,-3,-1
12401893124,-10,-11,-3,-2,20,-4,-2,-6
12401893124,-4,-6,-4,-4,12,-4,-2,-1
12401899929,-1,-1,-1,8,-17,-7,1,-1
12401899929,-1,0,-5,-18,-11,3,-12,0
12401914095,1,8,7,-8,1,-3,-2,-3
12401914095,-5,-13,-2,31,20,6,-8,0
12401922294,4,2,0,-8,14,7,1,0
12401922294,7,3,-7,-6,-20,-9,2,1
12401937372,-4,3,9,13,-8,-1,-4,-4
12401937372,-10,-18,-19,-40,-7,0,6,-3
12401938039,-2,3,-5,-3,3,-7,-3,-3
12401938039,-3,-10,-4,4,-3,-1,-9,-2
12401952375,-5,-13,-11,-13,-13,4,-1,-3
12401952375,11,13,7,40,15,4,2,2
12401959812,14,27,2,24,-4,-6,-1,2
12401959812,-16,-23,-10,-74,-19,-14,-7,-7
12401974241,-3,-4,-8,-2,9,6,0,1
12401974241,0,0,-3,-7,-5,-1,0,1
12401989843,0,-3,-10,13,1,-1,1,-1
12401989843,11,13,14,14,-2,-1,3,3
12401997298,-1,7,9,-15,-8,-12,-11,-3
12401997298,-13,-18,-7,18,5,-1,1,-6
12401998016,2,-4,-3,-3,-2,7,5,0
12401998016,-1,-1,2,11,5,-2,-7,0
12402020549,10,10,-6,-9,-7,0,-1,0
12402020549,-4,5,3,-8,-3,-7,0,0
12402021375,-17,-17,0,-4,1,-2,-10,-7
12402021375,-2,-9,-6,-4,-3,2,6,0
12402034188,3,-2,-2,2,1,-4,8,4
12402034188,-1,-2,0,-5,-1,3,-4,-5
12402049839,8,7,3,0,8,11,6,5
12402049839,0,9,-6,1,-2,-4,11,-1
12402057339,-4,-11,-5,8,2,-2,-17,-2
12402057339,-2,1,6,-1,-3,3,16,-1
12402058096,1,4,1,-6,-5,-3,-17,2
12402058096,-6,-7,-3,9,5,4,1,-2
12402080594,-4,-8,-3,7,4,-6,-4,-4
12402080594,9,2,5,-7,-4,2,8,1
12402081226,-5,-14,0,-5,-6,-7,-4,-2
12402081226,-1,6,-2,4,0,-3,-5,-1
12402094164,-9,-5,-6,-1,2,1,1,-3
12402094164,1,7,1,-8,-6,-8,-12,-2
12402102280,13,10,-4,1,-2,1,6,0
12402102280,2,8,4,6,-3,-7,-3,-1
12402117423,-11,-6,2,-3,3,6,2,0
12402117423,-8,-5,-11,-13,-4,-3,-7,-2
12402118055,-4,2,5,8,2,-3,4,-3
12402118055,3,1,16,7,0,4,0,-4
12402131583,-4,5,2,1,-1,-3,-4,-5
12402131583,12,3,12,3,8,2,1,4
12402139911,-1,-31,-1,-14,-12,-5,0,-1
12402139911,13,18,-20,-18,-5,-2,-3,-1
12402154232,-3,11,-9,0,5,8,8,1
12402154232,-26,23,41,5,0,-2,-3,-9
12402163058,-6,-20,-16,4,4,0,-2,-3
12402163058,-15,-21,-4,-7,-9,-1,2,5
12402176592,2,-17,16,-5,-19,-7,-5,-2
12402176592,14,20,-26,-17,12,1,-1,2
12402185633,23,21,43,26,-13,-2,0,6
12402185633,-19,-58,-26,-3,7,-1,-4,-9
12402191712,9,74,-9,20,20,4,-1,1
12402191712,-15,-18,-19,-22,-12,-8,-6,-8
12402200659,6,-2,15,23,2,0,0,-3
12402200659,-22,-40,-12,14,-5,-6,-3,-8
12402214118,7,1,11,-6,9,13,6,1
12402214118,14,25,0,2,-7,-6,-2,5
12402223100,-16,-1,-22,-23,0,-5,-5,-5
12402223100,28,26,16,-1,-4,-2,0,6
12402236700,-10,2,6,7,-3,3,1,-3
12402236700,4,-21,-4,19,4,1,0,3
12402245569,-3,-8,-21,-27,-8,-10,-9,-8
12402245569,-4,30,19,11,4,11,11,-1
12402251678,2,-19,-4,0,-2,-3,-3,2
12402251678,8,-15,-15,4,0,-14,-1,1
12402268098,-2,13,2,7,24,18,10,4
12402268098,-7,2,-3,-19,-36,-7,-27,-7
12402274192,-6,-13,-10,-5,13,5,-4,-4
12402274192,5,-8,2,17,12,4,6,7
12402283052,-5,-1,-1,-11,-28,-40,3,-6
12402283052,2,2,-2,-21,20,15,-29,-1
12402296703,-7,-22,-4,14,1,-3,18,3
12402296703,-4,-2,4,-2,-10,-10,2,-5
12402305638,-5,0,-2,-5,-22,16,-4,-3
12402305638,9,3,-2,19,15,-14,5,0
12402311694,8,5,-3,-30,-10,-1,-6,4
12402311694,-4,-5,3,-4,8,-4,-7,-1
12402320570,-4,-4,1,7,-4,7,8,-1
12402320570,1,5,-3,1,-3,-3,8,1
12402334122,3,2,3,-9,-4,-13,-15,-2
12402334122,-6,-6,-6,69,28,14,7,-2
12402343079,-11,-7,-9,-21,1,2,-5,-2
12402343079,16,22,7,-1,7,-2,3,5
12402356696,-3,-14,3,13,-11,-4,3,-5
12402356696,0,1,-8,-36,-15,-3,-5,-1
12402365571,2,13,1,-17,16,11,-11,0
12402365571,-8,-11,-10,-13,-16,-5,13,-1
12402371756,-3,-12,-7,12,14,-2,-2,-3
12402371756,5,11,6,-7,-26,-3,-1,0
12402380628,-6,-2,-14,-2,3,-9,-6,-6
12402380628,1,7,13,-12,4,6,11,0
12402394180,-1,4,-16,9,-3,0,-4,-2
12402394180,-7,-19,7,-9,-2,1,-5,-4
12402403123,2,-5,2,1,3,-7,2,5
12402403123,-1,3,-5,-3,-10,-9,-8,-1
12402416667,-7,-5,3,-4,-10,6,4,-4
12402416667,-1,6,6,3,4,4,-2,2
12402425581,0,-1,11,5,5,1,1,-1
12402425581,-20,-36,-14,-1,-5,-3,-2,-10
12402431661,0,-3,-7,-6,-1,-2,-2,-2
12402431661,2,-1,-10,-22,-7,-8,-5,-2
12402440593,3,2,-3,5,-3,4,0,-1
12402440593,2,6,6,10,5,3,5,2
12402454183,7,6,6,-2,5,-3,-5,1
12402454183,-6,-10,-1,-10,-5,-2,-4,-3
12402463058,2,8,-5,6,3,-5,-4,-1
12402463058,0,12,4,12,6,-4,1,-1
12402476630,1,-7,-6,-9,-8,-1,4,0
12402476630,3,5,3,5,1,4,1,1
12402485552,0,3,-1,3,3,-6,3,3
12402485552,-2,2,-1,0,3,11,2,-2
12402491680,2,-8,4,0,-4,-1,-3,5
12402491680,-8,-4,-2,-2,-1,5,-2,-4
12402500642,-5,-9,-3,0,0,-6,-1,-5
12402500642,-9,6,-4,-4,-2,-7,-8,0
12402514008,2,4,-1,2,-1,4,1,1
12402514008,15,3,1,1,0,0,0,3
12402523093,27,4,-2,-3,-3,2,0,3
12402523093,-6,-9,8,8,-3,-7,-6,-2
12402536659,-6,5,-9,3,-2,-6,-2,-4
12402536659,-12,17,2,-25,-10,-3,-1,-6
12402545612,-9,-25,-5,16,9,5,1,-5
12402545612,-8,-26,-14,-1,5,3,4,2
12402551560,19,43,16,17,5,0,-2,3
12402551560,-7,-25,-15,-17,-12,-7,-2,-3
12402560608,7,-4,5,-20,-9,-4,-4,3
12402560608,21,61,9,37,16,-1,-2,3
12402574206,-16,-28,-30,-44,-11,-1,2,3
12402574206,-14,-16,-13,4,-6,-4,-6,-9
12402583101,-30,0,-34,-23,-9,-2,-1,-7
12402583101,25,58,23,17,4,4,4,5
12402596707,7,-52,-25,8,14,5,4,2
12402596707,-9,-16,22,27,-3,-6,-4,-6
12402605559,-10,-5,6,9,-3,4,0,1
12402605559,3,-13,4,-4,5,2,3,2
12402620529,-6,-3,5,-4,-5,-4,-2,-5
12402620529,11,-21,0,-3,-4,1,2,3
12402621977,-3,24,9,8,5,-1,-1,-3
12402621977,5,-18,-7,-19,-17,-10,-4,-1
12402634155,-7,24,10,-9,-32,-12,-8,-4
12402634155,0,-10,-8,10,49,24,6,1
12402643142,-2,1,1,-12,-42,-43,-10,-3
12402643142,-3,-7,-6,-4,13,22,-2,-5
12402656581,-10,0,9,7,17,35,12,-8
12402656581,12,35,6,3,-5,-7,-31,5
12402665592,-3,-5,1,3,-12,12,-1,-2
12402665592,-15,-11,-14,-32,-26,-38,1,-5
12402680542,-4,-9,1,21,23,-19,-38,-4
12402680542,4,6,2,-7,-4,10,14,-2
12402681996,11,0,6,11,14,-3,-3,5
12402681996,-12,-30,-17,-14,-31,-14,-10,-8
12402694089,2,10,9,9,15,12,21,2
12402694089,-2,0,-4,6,22,5,8,4
12402703062,-5,4,0,-1,-4,2,-6,-3
12402703062,6,-3,-7,-27,-21,-17,-5,-2
12402716613,2,0,3,14,-4,5,3,0
12402716613,-4,3,-8,-15,-1,-6,5,-1
12402725704,0,0,4,7,15,1,9,1
12402725704,-3,-4,-1,12,4,18,-5,-1
12402740497,2,-1,3,-19,-6,-22,-4,0
12402740497,-4,-6,-5,-6,-18,-7,1,-3
12402742169,2,4,3,-5,10,12,9,1
12402742169,3,7,-1,14,20,-5,-5,-1
12402754184,-5,-7,-3,-11,-16,5,8,-2
12402754184,-6,1,-1,-7,-14,-5,-14,-1
12402763135,-4,-20,-2,-1,8,7,3,-1
12402763135,1,-1,13,15,16,10,5,2
12402776680,0,-4,-3,-11,-18,-5,2,-1
12402776680,4,0,9,6,-7,-4,2,1
12402785734,-8,-11,-10,-28,-3,-2,-11,-6
12402785734,-9,-17,-22,29,21,13,6,2
12402800510,-3,2,11,1,-4,-6,-7,-3
12402800510,4,3,-12,-15,0,-1,5,0
12402802183,8,8,3,6,1,1,-3,3
12402802183,-1,3,13,12,-5,0,4,-1
12402814113,3,3,-13,-31,-5,-6,2,2
12402814113,5,19,8,14,-4,-4,-1,3
12402823050,-9,-7,2,4,2,4,1,-5
12402823050,6,7,1,0,2,2,0,1
12402836653,8,2,2,11,10,5,4,5
12402836653,-13,-12,0,-2,-8,-4,0,-3
12402845553,2,-1,-9,-2,-5,-16,-6,-1
12402845553,-5,-3,5,-7,0,26,10,0
12402860530,0,5,2,2,-10,-8,-3,-2
12402860530,2,6,-3,1,3,0,11,0
12402862050,-1,-5,-4,5,6,6,6,-1
12402862050,2,4,1,-9,-3,-8,-9,0
12402874241,-3,-6,-10,-1,-2,-8,-10,-2
12402874241,0,-5,5,0,-4,1,3,-1
12402883105,-4,5,-3,6,2,0,-8,-2
12402883105,1,-6,-2,-7,-5,-4,5,-2
12402896679,4,8,2,1,0,6,9,3
12402896679,4,-3,-6,0,1,-5,-4,2
12402905608,-1,-2,-3,1,-2,0,-6,-1
12402905608,-12,-8,-6,-9,-3,-8,-6,-4
12402920481,7,0,1,4,3,5,-1,1
12402920481,-6,2,-1,5,-1,1,3,-3
12402922026,4,2,-1,-1,0,2,0,2
12402922026,-5,-2,-6,-7,-7,-8,-5,-5
12402934160,-2,-3,6,-6,-2,-5,-3,-2
12402934160,4,5,-1,3,-3,2,-4,-4
12402943176,-15,2,10,1,2,2,1,-1
12402943176,-1,-11,-15,-2,-2,-5,-1,-2
12402956633,-3,-24,-13,-6,-8,-7,-4,-3
12402956633,29,30,3,-5,-4,0,-3,6
12402965557,-8,25,32,9,4,6,6,-1
12402965557,-1,-55,-22,-27,-11,-3,-1,0
12402980403,-9,54,-10,7,8,-5,-6,1
12402980403,16,-14,6,1,-5,2,4,7
12402982013,11,13,-6,5,1,-1,-3,-1
12402982013,-22,18,20,-31,8,2,2,-6
12402994085,-1,13,6,1,-1,-2,1,1
12402994085,12,-5,-3,-11,-21,-6,-4,5
12403002995,-9,-43,-65,47,30,3,2,-5
12403002995,12,25,32,26,-7,-1,0,3
12403016514,11,45,-18,-7,0,2,0,1
12403016514,-42,-70,-24,-21,-1,-4,-7,-15
12403025517,13,21,10,-17,-19,-8,-3,-3
12403025517,0,9,1,5,-1,5,-1,1
12403040428,-13,-49,6,5,0,-6,-2,-2
12403040428,-12,16,-3,-2,-5,-5,-5,-4
12403042040,13,-3,-2,-11,3,-1,-4,-1
12403042040,-11,-12,-6,7,0,-13,2,-3
12403054011,1,4,14,-5,1,28,-8,-5
12403054011,-3,0,-7,-7,-10,-28,-1,2
12403063036,-8,9,13,12,21,23,-7,1
12403063036,11,24,1,1,9,5,3,1
12403076488,-1,-17,1,-3,-33,-18,0,1
12403076488,1,10,-1,-7,20,25,9,-2
12403085528,-2,-5,-1,-14,-31,-18,-5,5
12403085528,10,-8,-14,19,36,-10,-2,4
12403100393,-10,-17,1,10,-6,7,-5,-6
12403100393,-7,-3,0,6,-15,11,3,-1
12403101988,8,11,4,-34,23,-3,11,7
12403101988,-5,-7,-4,22,-6,13,-1,-1
12403114033,1,-3,-7,-15,-2,-27,-2,-4
12403114033,-3,22,1,-2,-5,-4,-4,-3
12403123007,-2,-14,0,-15,-9,10,2,-1
12403123007,-4,-2,2,15,-3,-4,-6,-3
12403136515,-2,-7,-1,1,10,-3,2,-3
12403136515,5,7,0,-10,8,7,-2,1
12403145509,2,4,4,24,3,-5,-1,0
12403145509,-1,-5,-5,-4,-5,10,9,0
12403160340,3,16,21,19,-10,-3,-4,0
12403160340,-11,-14,-14,-60,-7,-3,-1,-5
12403161944,-1,0,-1,34,9,-7,-4,-3
12403161944,13,16,0,-24,-10,-4,-6,5
12403174064,-3,-6,2,15,9,9,5,1
12403174064,0,-1,-2,5,-6,-6,-5,1
12403183025,-1,1,0,-21,5,0,4,-3
12403183025,-6,2,6,23,-11,-6,3,-3
12403196477,-2,-9,-5,-28,-5,1,-12,-2
12403196477,3,-1,3,27,29,4,2,-2
12403205555,-2,-1,3,1,-9,-2,0,0
12403205555,-5,-6,-2,-2,0,-2,-7,-5
12403220381,-3,-3,-7,-7,-8,-1,4,-1
12403220381,-2,5,5,14,4,-4,-5,-2
12403222124,4,-2,-1,-5,-3,3,1,0
12403222124,3,0,-1,-12,-8,-4,-3,0
12403234009,-5,-11,-7,-1,11,-4,-4,-5
12403234009,-8,-13,-4,4,-2,-4,-2,0
12403243110,-1,-7,-3,-3,-10,7,3,0
12403243110,0,2,-6,-25,-10,-2,0,0
12403257249,0,9,0,11,6,1,-2,-2
12403257249,8,7,8,19,8,-1,0,1
12403264055,-5,2,-7,-8,-9,-5,4,-3
12403264055,4,6,6,-8,4,1,-4,-1
12403280334,6,1,-4,-6,3,0,-1,2
12403280334,-17,-5,-1,5,-4,-4,1,-4
12403282086,3,2,1,-5,-8,-5,-4,-1
12403282086,6,4,-6,-6,-3,1,1,2
12403293989,2,-6,-2,0,0,-2,-2,1
12403293989,1,4,5,12,0,4,-1,0
12403303027,-12,-10,-9,-11,-3,-2,-1,-3
12403303027,-9,-8,-3,3,1,-1,-1,-5
12403317224,2,-2,-2,-7,1,2,4,4
12403317224,0,7,1,-3,2,3,-1,-1
12403324048,2,2,-2,2,-5,-2,-7,-1
12403324048,-1,-1,-1,5,-1,-1,-3,-5
12403340458,2,-3,-5,-2,-1,-2,1,3
12403340458,8,1,4,-16,-10,-5,-3,1
12403342134,-8,4,3,14,4,-1,-2,-4
12403342134,-6,28,24,-4,2,5,3,2
12403353957,16,-21,-1,12,3,2,0,-2
12403353957,-28,-29,-40,-14,-5,-5,-4,-7
12403363070,6,-26,4,21,-9,-5,-1,5
12403363070,2,49,0,-43,-1,-2,-2,-3
12403377393,-26,4,6,2,0,0,-4,-7
12403377393,18,-7,11,22,10,1,-2,1
12403384083,-8,-95,-27,-6,-7,3,5,1
12403384083,3,12,1,13,-6,-5,-7,-5
12403399796,5,27,-13,-13,4,-1,2,3
12403399796,-2,11,4,48,3,0,-1,-3
12403406565,-9,53,-1,-48,-19,-9,-6,-1
12403406565,4,12,-10,18,7,4,4,5
12403414057,-13,36,10,-1,1,3,4,-3
12403414057,-3,-15,1,2,10,8,-1,-7
12403423098,10,26,12,-14,-13,-7,-6,1
12403423098,-4,-23,8,4,-6,-3,-2,-1
12403437395,6,-2,-7,10,2,-6,-1,-1
12403437395,-17,-32,0,-1,-5,4,2,-2
12403444133,13,13,8,1,6,0,-2,-4
12403444133,-7,-81,-20,-9,-1,-4,-1,2
12403459847,0,-7,4,8,2,4,-1,-3
12403459847,1,3,3,-14,-3,-3,-2,2
12403466726,-4,4,-3,-16,-32,-24,-10,-8
12403466726,-13,-7,-9,1,16,-19,-4,0
12403474184,-1,-19,1,15,15,54,4,-2
12403474184,10,20,6,-11,-4,-3,3,6
12403483004,1,15,-2,5,5,6,-7,-1
12403483004,13,25,6,3,3,-10,-5,-2
12403497300,-7,-6,-2,-14,-23,-37,-5,7
12403497300,1,6,-3,-8,3,-8,-4,-2
12403504014,-3,2,10,28,42,42,21,3
12403504014,2,-6,-11,-24,-36,1,-3,3
12403519729,-3,-14,7,7,26,-9,1,-7
12403519729,2,2,-4,6,3,12,-4,2
12403526646,-3,-4,-3,-6,1,-14,-2,0
12403526646,-4,-12,4,-13,7,13,4,-2
12403534080,0,5,-7,16,-22,-11,-2,-3
12403534080,6,9,8,2,0,-6,-1,0
12403543105,-3,-7,-15,0,2,5,-1,-2
12403543105,-2,7,-12,-17,-6,-1,1,-3
12403557173,-2,5,5,4,14,0,2,1
12403557173,5,7,1,4,-9,4,-7,-1
12403564125,-2,-3,-3,5,8,-6,-7,-2
12403564125,-5,-7,-15,-7,-23,-7,-7,-5
12403579825,4,8,1,-7,-4,-4,-1,0
12403579825,-7,0,-19,13,25,19,2,0
12403586658,0,2,-4,-27,-7,-4,2,1
12403586658,-2,-4,7,5,-6,-7,-1,-3
12403602901,-1,-12,-13,7,-3,0,-3,-2
12403602901,0,12,7,-26,-27,-18,-2,-5
12403604608,-6,8,9,5,6,-6,-2,-1
12403604608,-3,-6,8,29,5,5,0,-3
12403617373,-2,-10,4,-15,-4,1,-2,-2
12403617373,5,4,0,-2,-2,-4,4,0
12403624034,-3,4,2,11,-1,-3,-2,-1
12403624034,-6,-7,-4,-6,3,4,-4,-3
12403639839,1,-3,-5,-9,-4,-1,1,-1
12403639839,-3,-3,-5,-6,-4,-5,0,4
12403646625,2,-5,3,-3,-5,-6,-2,0
12403646625,6,7,-3,17,5,4,1,-1
12403662987,-14,-10,0,2,1,1,-1,-4
12403662987,5,2,-6,-10,2,-2,2,-3
12403664478,8,6,11,0,-4,-5,-2,3
12403664478,4,-2,-2,1,1,-2,-10,-1
12403677266,-2,-4,-4,-10,-9,1,0,0
12403677266,-13,-14,2,6,-2,-1,-5,-5
12403684156,4,6,-2,0,0,3,3,-1
12403684156,-3,1,1,-2,-4,-10,-6,2
12403699798,6,3,-1,-2,0,1,9,-1
12403699798,2,6,4,-1,-3,0,2,-2
12403706638,-10,-4,-9,0,-5,-3,-4,-1
12403706638,-11,-9,0,-2,4,5,3,2
12403723019,-6,-14,-1,-6,-1,-3,-5,0
12403723019,8,3,0,0,-3,-4,0,0
12403724537,3,6,-2,-1,-3,1,0,-5
12403724537,0,6,-4,-2,1,3,2,-1
12403736566,9,9,1,-3,-3,-1,-3,1
12403736566,-2,-1,14,-6,-5,-5,-3,-1
12403745558,-2,-11,-7,4,0,2,0,-1
12403745558,-6,7,7,1,7,3,5,-3
12403759843,13,17,11,13,-3,-5,-3,0
12403759843,-17,-25,-10,-13,-6,-1,-1,-3
12403766613,-8,10,11,-15,-3,3,3,0
12403766613,11,41,0,-3,6,1,2,3
12403783008,-12,-59,-15,-25,-14,-3,-2,-6
12403783008,13,-38,1,6,-1,1,-2,3
12403784489,-5,24,0,20,2,2,2,1
12403784489,7,32,10,-12,6,2,4,3
12403796610,4,48,2,-2,11,0,-3,-1
12403796610,-20,-29,-3,-1,-9,-5,-3,-7
12403805504,16,-5,-7,0,-3,-8,-6,-1
12403805504,-29,-91,-22,-20,-7,0,-2,-6
12403819790,-3,-5,22,0,4,3,3,3
12403819790,-6,29,-23,-5,-4,-5,-7,-6
12403826654,-11,2,3,-6,2,4,0,-4
12403826654,12,6,-4,1,2,2,4,2
12403843016,11,-17,-9,-4,-9,-7,-2,3
12403843016,-8,0,0,0,-3,-10,-2,-2
12403844504,-13,-29,-1,-3,-12,-1,-4,-6
12403844504,7,-23,-7,11,-2,-2,-6,-2
12403856600,-9,-12,-14,-9,8,15,-1,-2
12403856600,9,33,12,16,10,3,3,1
12403865521,5,8,0,8,9,1,-1,3
12403865521,2,-5,3,3,-5,-10,21,4
12403879832,-3,7,-3,6,-1,3,-30,-5
12403879832,-1,1,-2,-22,-10,-15,-8,0
12403886649,-5,-3,-1,12,-20,-7,1,-4
12403886649,-3,3,-2,-9,5,7,-3,-3
12403903032,8,6,1,22,20,5,-2,2
12403903032,5,18,-2,7,4,3,19,4
12403904616,-5,-19,-5,-5,2,-5,-13,2
12403904616,1,11,-3,-5,-20,-12,-11,-2
12403916654,-4,7,-4,-4,-6,-15,28,-1
12403916654,-2,-11,5,5,8,20,-4,-3
12403925532,13,-2,-3,5,6,-1,7,1
12403925532,-2,-3,-2,-10,-5,-6,-3,-6
12403939724,-16,-6,2,1,-7,-9,-12,-1
12403939724,4,0,-3,-24,-8,-2,10,0
12403946604,-2,1,-2,18,-12,-7,-4,-1
12403946604,-4,5,-10,-10,23,14,5,2
12403962928,2,4,9,3,-25,-7,8,1
12403962928,1,1,-19,19,36,7,-5,0
12403964544,-1,0,-1,-29,2,10,2,2
12403964544,3,17,0,20,-7,-9,-1,-2
12403976505,-2,-3,-12,-2,17,9,3,-1
12403976505,8,7,7,12,-17,-2,-3,1
12403985653,-1,1,2,2,4,-4,-2,-3
12403985653,1,-3,3,1,-8,0,-5,2
12403999772,-1,-2,2,0,-4,0,-2,-3
12403999772,-1,-1,-8,-25,-14,-5,-6,-2
12404006557,1,-1,-7,8,9,-1,5,0
12404006557,-3,-3,5,5,-2,-2,-2,-1
12404022880,-3,9,6,8,3,2,0,-3
12404022880,3,8,5,-1,2,1,3,2
12404024555,-1,-17,-5,-6,-3,-1,-4,-2
12404024555,-1,7,2,-1,-4,-2,-4,-2
12404052838,7,3,-4,-10,-5,-4,-2,0
12404052838,-5,7,-2,3,-1,3,-3,-3
12404054441,-5,-6,6,-6,4,4,0,0
12404054441,0,-9,1,9,1,-7,-9,-2
12404059094,1,-1,-3,-3,-3,0,5,-2
12404059094,2,2,12,3,-5,-2,0,2
12404068111,-3,-2,-6,-6,-2,-2,-4,-2
12404068111,-6,2,3,0,-2,0,1,-2
12404082931,-5,-1,-3,-7,-8,-9,-5,-2
12404082931,-2,-4,8,5,6,-1,1,-1
12404084564,7,3,-8,-3,-1,3,6,2
12404084564,1,-3,2,4,4,-2,-9,-2
12404096560,-6,-14,-4,-7,-4,-2,8,3
12404096560,-11,-7,5,3,0,0,-1,-5
12404105534,10,9,-4,-2,-4,-6,-4,-2
12404105534,-8,-16,-14,-7,-4,-1,1,-4
12404119820,-5,-3,-1,-3,0,-1,-5,-3
12404119820,-23,-18,2,0,-1,-1,-1,-4
12404126506,-3,0,2,-2,-1,-3,4,-2
12404126506,18,11,6,1,0,3,3,6
12404142959,-3,-18,-9,-6,-2,0,-5,-1
12404142959,12,5,-14,5,-3,-6,-5,-1
12404144605,7,0,-1,-14,-3,1,-2,-2
12404144605,-20,-4,1,3,-2,0,-3,-5
12404156563,1,-10,15,4,3,-1,-4,-2
12404156563,-1,-1,-10,-5,-6,-2,-2,0
12404165538,-18,-35,-37,10,-6,-4,-7,-6
12404165538,16,17,2,-8,-3,-1,1,6
12404179744,-3,-51,-19,-15,4,-3,-2,-8
12404179744,11,11,16,-9,-4,4,4,6
12404186681,-8,36,-16,17,29,10,0,-2
12404186681,0,-2,-2,1,2,1,1,2
12404203008,-17,-2,-29,-1,-9,-8,-6,-6
12404203008,16,-47,25,12,1,-3,-1,-1
12404204483,-39,-36,-28,-35,-19,-11,-8,-6
12404204483,1,-24,2,1,1,-2,1,-4
12404216601,20,50,-2,-32,-2,3,-1,2
12404216601,-1,37,8,-5,-2,-2,-6,-4
12404225511,14,-12,-2,23,10,3,4,2
12404225511,-20,-61,27,16,-2,0,0,-2
12404239766,4,46,-25,-21,-9,-4,-5,2
12404239766,-17,-1,-9,-11,-16,-8,-4,-3
12404246600,19,15,25,23,3,0,1,1
12404246600,-21,30,-10,-13,-11,-8,-3,-4
12404270455,8,2,41,18,7,3,2,0
12404270455,-6,-10,-45,-15,-14,-6,-1,-2
12404271985,7,1,10,-11,4,2,-1,1
12404271985,9,8,5,-7,-4,-2,-7,-2
12404276615,-14,-20,7,18,3,-16,7,-2
12404276615,7,-3,-4,-5,17,17,1,5
12404285509,5,12,13,-12,-12,29,10,0
12404285509,2,4,-1,5,0,-3,-9,1
12404299767,-2,-1,-1,-5,-21,-21,-5,-3
12404299767,-1,3,-6,14,50,5,-17,-2
12404306643,-2,-1,12,-4,-10,-15,3,2
12404306643,4,6,-11,3,16,21,14,1
12404323038,-2,4,3,5,-25,-16,-2,0
12404323038,3,-12,-1,-38,-23,5,2,-2
12404324602,-7,-5,6,-9,0,-5,-10,-2
12404324602,-3,-5,0,49,9,-2,4,-3
12404336601,-6,-13,-3,-31,2,8,-3,0
12404336601,-3,-1,-1,-6,2,-11,0,-2
12404345523,2,4,2,1,-3,-2,-1,-1
12404345523,2,12,-11,-34,-19,-12,-3,-5
12404359801,1,2,10,55,19,7,-2,0
12404359801,5,21,18,4,-27,-2,-1,3
12404366581,-1,-9,-5,13,20,3,10,2
12404366581,6,1,-3,12,4,3,1,2
12404382270,-13,-15,-8,-9,23,11,-1,-2
12404382270,-1,-5,0,-7,-17,-16,-6,-4
12404389029,2,7,5,16,1,-7,0,-1
12404389029,-7,-19,0,-8,-2,5,0,-3
12404396566,9,7,6,10,2,7,1,3
12404396566,-6,-8,-8,18,-5,-4,4,-2
12404405589,-12,-11,1,-19,-9,0,-2,-3
12404405589,4,15,-5,-9,9,1,-1,1
12404419768,4,1,-1,11,-4,0,-1,2
12404419768,-5,-8,4,5,3,-5,-2,-2
12404426597,5,14,5,-16,-8,-1,-5,0
12404426597,-3,6,2,4,-8,-3,-1,0
12404442296,0,-3,-5,-21,-1,1,2,2
12404442296,-2,10,0,6,6,1,1,2
12404449021,4,-1,4,-3,-2,-3,-4,-2
12404449021,-5,-9,-7,1,-2,-9,-3,-3
12404456551,7,-3,-6,-9,-2,-4,3,1
12404456551,-1,-5,3,20,5,14,5,0
12404465485,-4,-2,-13,-8,-5,-9,-4,-2
12404465485,0,5,2,-5,-1,5,4,-1
12404479775,-4,0,0,3,-3,-1,-7,-1
12404479775,-2,-2,-1,2,5,1,11,-2
12404486564,-6,6,7,6,-3,-6,1,-2
12404486564,11,-11,-6,-7,-2,-1,-1,3
12404502279,2,0,-2,-8,-1,1,-11,-3
12404502279,7,5,-2,3,-1,-5,1,2
12404509070,-11,-10,-1,0,-1,3,-1,-3
12404509070,2,5,0,-10,-1,-2,-4,0
12404525423,10,11,2,7,-1,6,11,1
12404525423,-25,-15,0,-4,-1,-6,-5,-2
12404526993,8,-11,-9,-3,-2,0,1,1
12404526993,-14,0,0,-2,-4,-2,-4,-6
12404539751,3,2,-8,-9,-6,-1,-5,-2
12404539751,11,15,-2,0,-3,1,2,6
12404546508,-1,14,16,7,3,1,0,-1
12404546508,6,-11,-14,4,4,5,2,2
12404562404,-17,-25,5,13,7,1,2,-3
12404562404,3,20,13,-17,-7,-4,-4,-4
12404569022,9,1,-19,0,-10,-7,-5,2
12404569022,-4,7,2,-7,1,-1,-3,0
12404585466,-4,10,3,0,-10,-2,-1,-6
12404585466,-18,-34,-4,3,18,9,2,-3
12404587092,16,5,-5,4,0,-2,-3,2
12404587092,-6,-6,19,-4,2,0,0,2
12404599777,-9,0,-15,-15,-6,-2,-3,1
12404599777,8,-5,-2,1,-13,-8,-2,-2
12404606523,23,40,0,-19,0,-2,-5,-3
12404606523,-27,-10,-20,-13,-9,-3,0,-4
12404622289,-16,-22,1,19,6,7,2,0
12404622289,-1,4,-4,1,7,3,1,-2
12404629071,-2,-15,1,13,-1,-2,-1,-1
12404629071,6,19,9,-10,-16,-11,-9,-5
12404645364,11,13,8,-3,-1,-2,-1,0
12404645364,-11,-9,-15,0,3,-4,-1,-3
12404646958,-3,-14,13,-9,-10,-1,-4,0
12404646958,-6,-15,-11,4,-2,2,-3,-2
12404659003,3,-1,-8,-10,-2,-14,-2,-3
12404659003,19,11,4,9,0,11,2,11
12404668686,5,-4,1,-8,5,6,2,-3
12404668686,-13,5,6,3,4,0,-7,2
12404682298,8,3,-2,10,6,4,-3,4
12404682298,-14,-4,-3,-9,-11,-2,-2,-6
12404689040,-11,7,0,-3,-4,-11,8,-3
12404689040,12,-2,-7,-17,-17,-8,-3,-3
12404705500,-4,9,0,-7,-12,1,-5,0
12404705500,-1,-12,-4,0,21,6,7,-1
12404706987,-14,-17,-4,17,33,36,14,1
12404706987,11,-5,7,-18,4,-3,1,-2
12404719081,2,5,14,11,-8,-7,-1,0
12404719081,2,-2,-8,-5,-24,-24,-12,-4
12404727989,-14,-15,-4,27,-12,-8,-8,-5
12404727989,4,2,-11,-22,8,-4,-1,0
12404742206,-1,0,-2,-3,1,1,1,-2
12404742206,1,4,4,-9,-4,-3,-4,-1
12404749075,-4,0,4,-5,-17,-2,-3,-2
12404749075,0,3,5,28,20,1,2,0
12404765448,5,4,-2,15,-19,-5,-2,0
12404765448,2,3,-8,-10,16,6,-1,-3
12404766931,-4,-7,-5,7,-10,-4,-3,1
12404766931,0,-2,1,9,8,-2,1,0
12404787317,-6,-7,2,-11,-4,1,2,-4
12404787317,0,-5,1,-13,2,6,0,0
12404787980,-5,3,-7,16,2,-10,-8,-1
12404787980,-3,-6,-5,14,-4,6,2,-2
12404802962,-7,-3,13,39,7,-4,0,-1
12404802962,4,3,-11,-44,-19,-2,-7,-4
12404809086,1,4,0,4,15,-2,0,-3
12404809086,14,12,1,15,-8,-4,0,3
12404824707,-6,-13,-5,-28,5,8,4,-1
12404824707,-9,-5,12,23,-12,-7,-5,-2
12404825459,-6,-4,-8,-9,7,-1,-3,-2
12404825459,-2,-5,-9,-8,-1,2,0,-2
12404847114,0,2,6,-16,-1,5,5,1
12404847114,4,8,0,10,0,-4,-1,-1
12404847911,3,-1,2,-9,-5,-4,-1,2
12404847911,-5,-7,-4,-15,-11,-3,-2,-1
12404863073,2,-2,-12,-6,1,4,1,-1
12404863073,-1,-1,-3,17,5,0,2,2
12404868930,2,0,4,-8,-2,2,0,2
12404868930,-8,-4,3,-4,-5,-4,5,-3
12404886158,-2,-9,-8,0,8,-3,-1,-1
12404886158,4,-2,2,8,0,4,7,1
12404887130,7,7,0,-19,-9,-7,-8,-1
12404887130,-1,0,-2,3,6,8,2,0
12404907218,-7,-2,-5,-5,-1,-5,-6,-5
12404907218,-2,4,2,0,-1,-2,-3,-1
12404907873,7,3,-1,-12,-5,-5,0,3
12404907873,0,-3,0,7,0,-2,-6,-2
12404922948,-8,-2,1,1,2,9,14,0
12404922948,-11,-10,-2,0,-2,-7,-13,-5
12404929051,-7,-6,-2,-4,-2,1,-1,-4
12404929051,8,10,0,-5,-4,-3,-3,2
12404946079,-5,-5,3,-5,-1,-3,-6,-2
12404946079,2,6,4,-3,-4,0,0,0
12404947051,1,-5,-15,1,2,-4,-3,-3
12404947051,-4,0,-3,2,-2,0,3,4
12404974681,-12,17,17,-4,0,-2,-3,-4
12404974681,14,-18,-21,15,-6,-2,2,2
12404975480,19,22,44,-5,2,0,0,3
12404975480,-19,4,-36,3,2,2,-2,-7
12404982951,16,7,7,-7,6,0,1,5
12404982951,-20,15,10,-8,4,4,3,-5
12404989029,1,-18,-19,7,-3,-1,0,0
12404989029,0,21,26,-7,-1,-3,-4,-2
12405004737,5,23,12,22,4,2,1,2
12405004737,27,4,-13,-30,-5,-2,3,5
12405005507,-9,26,-39,30,14,1,0,-1
12405005507,4,-38,10,-10,1,0,0,-1
12405027210,-24,48,2,-4,-10,-7,-8,-9
12405027210,-2,-5,0,3,2,0,-2,4
12405027936,9,34,23,10,-15,-10,-3,0
12405027936,-6,-14,-34,-44,-11,5,0,-3
12405042943,14,7,8,54,11,-2,-2,0
12405042943,-12,-38,-13,20,20,6,-1,-7
12405048886,-17,8,-1,-10,-4,-3,-6,-6
12405048886,4,10,9,0,-7,-11,-4,-2
12405064768,5,-36,-6,-8,-6,7,3,0
12405064768,-10,21,11,-8,-8,-12,-4,-1
12405065423,-5,-24,-3,-15,-4,-4,1,0
12405065423,11,3,6,5,3,0,-7,1
12405087258,-8,1,-16,-27,-13,-6,-3,-4
12405087258,14,-3,3,19,7,3,1,1
12405087982,-4,-9,7,9,27,15,26,1
12405087982,-5,-13,-4,-1,4,28,-11,1
12405103078,-1,-18,-6,-8,-11,-7,3,-3
12405103078,-6,18,7,-4,-18,-26,-25,-5
12405109041,3,-16,-3,-24,7,-8,11,3
12405109041,5,13,6,24,3,-3,6,1
12405124755,2,-16,-16,-15,-17,0,-11,-1
12405124755,-5,-3,-4,-19,2,-4,-3,-4
12405125436,0,4,-3,-8,-25,2,-9,-1
12405125436,-4,-5,0,-4,6,4,8,-2
12405147280,-4,1,2,13,5,-9,-11,-5
12405147280,-5,-13,-14,-20,14,10,12,2
12405147913,-2,-2,1,-20,-16,-10,-13,-1
12405147913,2,12,12,-9,-20,-5,0,0
12405162967,1,-6,10,-10,0,-2,0,-2
12405162967,-2,-2,-4,34,3,3,3,-1
12405168997,-6,-16,4,-28,-11,2,-4,-3
12405168997,-2,-4,-5,62,5,-14,-5,-3
12405192248,5,2,-20,-58,-1,6,1,2
12405192248,7,16,1,7,12,8,4,4
12405192906,-5,-5,4,-7,2,4,-4,-4
12405192906,1,-5,-12,-14,-6,-14,1,-1
12405200483,5,-9,10,9,-1,-1,2,4
12405200483,1,9,-4,38,-6,-5,-4,-1
12405206506,-5,-3,-14,-35,-9,-2,-2,-2
12405206506,-8,-1,17,10,-1,-3,-1,-2
12405222916,0,-6,-12,-8,8,1,2,1
12405222916,-12,-3,9,-22,-14,2,-2,-3
12405229029,4,-6,-16,17,3,-2,-2,-1
12405229029,0,-3,8,0,10,8,2,3
12405244686,-3,-9,-10,8,3,1,-1,0
12405244686,0,-2,7,-10,-4,1,0,0
12405245484,-6,-8,-2,16,2,-12,-5,-3
12405245484,3,5,-8,-3,6,23,10,-4
12405260558,4,5,-3,-9,-12,-4,-3,0
12405260558,0,-4,4,7,4,7,4,-1
12405266422,-1,6,3,12,6,-2,-3,1
12405266422,-6,-10,-9,-15,-5,-10,-1,-3
12405283043,-1,8,5,6,5,-2,-16,-5
12405283043,-1,-6,3,-4,-3,-5,0,2
12405289036,6,-8,-7,6,1,9,6,0
12405289036,0,2,5,-3,-1,-6,-1,1
12405304032,-4,-8,-2,9,4,1,6,-4
12405304032,-8,6,-4,-5,-3,-6,-5,-3
12405311508,0,-8,2,-2,-5,1,-1,2
12405311508,-1,-5,-3,2,-1,0,-1,-1
12405320532,0,-2,-1,5,6,0,0,2
12405320532,-3,6,3,-6,-8,0,0,-1
12405326560,0,2,1,6,0,2,2,1
12405326560,8,3,-2,-5,0,-5,-5,-1
12405342922,-14,0,-1,-3,-3,-3,-3,0
12405342922,14,-2,-5,-11,-6,2,1,-1
12405349023,-16,7,9,12,7,4,-4,-5
12405349023,-12,-8,10,5,-2,-4,-4,-5
12405364036,0,-1,8,-27,-6,2,5,2
12405364036,5,-11,-6,40,8,-1,-3,2
12405371487,11,8,-36,-26,-6,-3,-4,-1
12405371487,3,-3,10,-4,1,-1,0,3
12405380460,-10,60,-8,2,8,2,0,-5
12405380460,-12,-44,6,11,-13,-6,-4,-5
12405386579,7,-40,20,-33,-2,4,0,1
12405386579,15,24,-20,22,9,2,2,4
12405403092,-6,5,-4,1,13,1,0,-4
12405403092,1,40,-1,4,0,-3,-2,0
12405409009,-17,15,6,6,-8,-4,-4,-7
12405409009,-3,24,17,-20,-16,-5,-1,1
12405424045,21,-29,-8,7,-5,1,-1,6
12405424045,-2,24,2,-6,2,-2,1,0
12405431558,-12,-51,-2,1,0,1,-4,-4
12405431558,-7,22,16,7,4,-2,0,-5
12405447193,3,15,-1,5,-10,-4,-1,-3
12405447193,-1,-30,-7,-11,2,7,1,0
12405447947,17,29,-4,4,-3,-12,-2,-1
12405447947,-13,-12,-16,-11,-17,-10,-5,-5
12405461602,-6,-53,-2,18,3,-2,-3,-4
12405461602,-3,0,12,-8,3,-7,2,3
12405468996,2,-4,-2,-1,25,31,8,-1
12405468996,0,1,-2,3,-12,-9,-8,-2
12405484060,-2,9,-2,-13,-18,-16,0,-4
12405484060,5,4,-7,-16,-11,12,0,4
12405491553,-3,26,-2,6,36,-9,0,-2
12405491553,5,-25,2,21,0,-1,3,4
12405507087,6,-6,-7,-18,2,3,-2,-2
12405507087,-9,-5,-2,13,1,-2,-3,-8
12405507982,-6,-12,-1,-6,-24,-7,-7,-1
12405507982,-5,-5,-4,4,25,18,0,-3
12405521586,4,-10,7,6,-14,-19,-2,4
12405521586,-2,2,-4,-9,-1,-1,-4,-3
12405529074,2,6,-11,-35,-19,-6,-4,1
12405529074,-2,0,-9,20,3,-5,-2,-1
12405543987,-5,-3,7,3,1,10,1,-2
12405543987,0,-2,-10,-6,-11,-5,-4,-3
12405551580,-3,0,10,25,19,4,5,-1
12405551580,9,5,-25,-21,-9,-3,3,2
12405567199,-8,-17,14,-7,2,-9,-2,-1
12405567199,-1,2,6,2,-17,4,-2,-1
12405567932,14,11,-4,0,-6,-16,-1,4
12405567932,-11,-24,10,18,21,25,1,-2
12405581551,3,-3,-5,-18,-10,4,2,-4
12405581551,2,2,-2,21,35,-12,-1,-1
12405589019,-9,-1,10,6,-16,2,-5,-6
12405589019,-1,-1,-3,-35,-11,-8,-3,-3
12405604047,2,7,-13,25,-1,-2,-4,2
12405604047,-7,-11,8,-10,-7,2,3,-2
12405611586,-5,-6,-8,4,3,-1,-4,-2
12405611586,-1,-2,-1,-17,-4,-9,-4,-2
12405627221,-7,-3,4,8,-9,-1,-5,-5
12405627221,6,6,-12,-15,-4,-4,-4,0
12405627908,4,6,-1,8,-4,-3,0,2
12405627908,4,-2,4,-3,-8,-7,-2,-2
12405641467,3,9,-7,-3,10,1,0,2
12405641467,-6,-10,4,-6,-3,-4,5,-2
12405649007,-5,-1,1,2,-2,12,4,1
12405649007,-2,1,2,-7,-4,-2,-1,0
12405663901,-1,-2,-6,5,3,1,-3,-2
12405663901,4,0,-5,-9,6,1,3,0
12405671510,-2,0,-1,6,-9,-4,-2,-2
12405671510,2,1,-6,-4,2,-2,5,3
12405687208,4,1,1,2,8,11,-4,3
12405687208,-4,7,2,-9,-6,1,7,-3
12405688007,-6,-3,-2,1,-2,-4,-3,-2
12405688007,-5,-11,0,2,-2,-2,-1,-1
12405701436,-15,-10,-7,-10,-2,-2,-1,0
12405701436,-3,-7,1,-2,0,3,-3,-2
12405708984,7,6,4,3,1,2,0,-4
12405708984,-4,4,4,4,-1,-4,-5,-3
12405723983,4,-3,-4,-3,-3,-8,-1,-1
12405723983,5,4,-13,-11,-4,6,1,1
12405731510,-18,-11,-2,12,-2,-5,0,-2
12405731510,8,10,9,10,1,-1,-2,0
12405747109,-8,3,6,-2,2,-1,2,-2
12405747109,7,4,6,6,-3,-9,-6,1
12405747962,0,-21,6,2,4,3,1,5
12405747962,1,11,-7,-11,-9,-1,1,-2
12405761534,10,4,-18,5,-5,-3,-4,-3
12405761534,-21,-85,-26,-33,-1,-4,1,-5
12405769047,10,17,26,21,-5,-2,-4,-2
12405769047,-26,43,-6,-11,4,1,-5,-8
12405783971,4,32,-25,-2,-3,1,3,-3
12405783971,13,22,18,39,5,1,0,5
12405791534,10,27,-65,-50,4,7,7,9
12405791534,3,-53,13,-41,-13,0,-2,-5
12405807261,17,36,23,54,3,-1,1,6
12405807261,-12,-29,-14,-10,-3,-2,-6,-3
12405807927,20,6,38,36,4,-7,0,3
12405807927,-6,16,9,8,7,2,0,-3
12405821364,-4,0,-31,-17,-7,7,1,-1
12405821364,5,40,16,-23,8,7,3,0
12405828962,8,15,-14,-7,-5,-3,-3,-2
12405828962,-22,-36,-12,-15,-18,-26,-10,-4
12405844008,-4,-44,13,12,14,25,5,0
12405844008,7,28,6,10,-2,5,-2,-2
12405851509,-16,-6,1,-19,-4,-5,-3,-4
12405851509,4,-6,-2,5,-1,-9,-2,2
12405867186,10,-1,13,-10,-28,-20,-8,-1
12405867186,-13,8,-9,-10,-21,-2,-1,-3
12405867876,9,1,16,10,59,5,11,1
12405867876,6,-9,-20,21,-2,5,0,3
12405881536,-7,-11,-2,-28,-38,-6,-11,-5
12405881536,-3,-7,-5,-2,12,15,3,-5
12405889020,-16,-19,3,-15,0,-17,-15,-6
12405889020,6,10,6,52,29,17,6,2
12405904081,2,-6,-2,-18,9,14,36,10
12405904081,4,12,5,-4,-18,5,3,3
12405911589,-11,-17,-1,0,-28,-15,-1,-4
12405911589,5,3,-5,-14,7,2,-8,-2
12405927235,4,4,2,-24,-2,-32,-4,0
12405927235,-6,-21,-19,10,0,22,7,-3
12405927880,3,6,-3,-3,-12,-2,-1,1
12405927880,3,9,10,34,4,-4,-2,-1
12405941529,-11,-11,-6,-14,8,-2,-1,-3
12405941529,2,4,14,-5,-11,-20,-13,-4
12405949033,-10,-11,-9,-54,-32,-2,-11,-10
12405949033,12,19,-6,23,-10,-12,-5,2
