timestamp,emg1,emg2,emg3,emg4,emg5,emg6,emg7,emg8
6851860027,2,-8,-4,3,-1,-3,-2,1
6851860027,1,-1,-3,-2,-3,-2,-2,-2
6851861081,-1,7,2,3,-2,-2,-4,-5
6851861081,-3,-3,1,-9,-8,-4,1,3
6851865203,-8,-5,2,2,-2,1,3,-4
6851865203,0,5,-3,-6,-2,-5,-5,-3
6851865945,3,-3,5,8,0,0,1,3
6851865945,2,-7,-5,2,8,5,-3,-2
6851871695,-2,4,-3,-2,0,-1,1,-1
6851871695,-1,-4,0,-1,-2,-3,1,0
6851883113,-8,-7,1,-1,2,-2,0,-3
6851883113,1,-2,3,8,1,4,3,-3
6851886654,5,6,-3,-4,3,-2,-3,0
6851886654,-5,-8,-2,-6,-7,-12,-6,-2
6851903031,-6,-5,-5,-2,-1,13,4,-3
6851903031,2,6,-3,4,3,-2,-4,-5
6851910367,-2,-4,-3,-9,-11,-2,3,1
6851910367,1,-6,1,8,5,-4,2,0
6851918073,0,-2,0,0,-6,-1,-2,-3
6851918073,-4,-3,-1,5,7,-1,3,3
6851931689,7,1,-1,-5,-1,-1,-5,-9
6851931689,-8,7,6,3,2,5,7,4
6851979183,3,-6,0,-3,-9,4,0,0
6851979183,-6,-3,-4,-5,-3,-2,-15,0
6851979830,0,0,-4,-11,-13,-1,1,-2
6851979830,-1,-4,0,6,9,0,3,-1
6851980762,-5,7,2,4,3,8,2,-5
6851980762,6,6,1,-1,1,0,4,7
6851983959,-2,-5,0,6,4,1,-3,-3
6851983959,-2,-2,-2,-5,-7,-5,1,2
6851991435,14,9,0,-12,-11,-9,0,2
6851991435,-9,-7,-1,6,3,1,5,-3
6852000377,-5,-14,4,3,4,0,-3,-1
6852000377,-4,7,2,3,2,-1,10,-2
6852006478,-7,-3,0,2,11,-3,-10,-1
6852006478,1,-7,3,-1,0,11,-4,-2
6852022929,1,6,-1,5,-1,-8,-4,0
6852022929,0,-4,-11,-18,-6,3,-3,-2
6852028982,-3,-16,-1,7,-6,-7,0,-3
6852028982,-1,6,-1,-6,-1,-5,-8,-1
6852037906,-2,5,-9,-10,-10,-8,5,-5
6852037906,-4,4,10,12,16,15,-27,6
6852051486,2,-5,-4,-2,1,1,2,2
6852051486,-7,2,-4,-8,-11,-8,0,-6
6852060388,6,3,-1,-6,-2,-3,-31,0
6852060388,-1,-8,2,0,-6,-9,3,-4
6852066429,-7,6,-4,9,13,9,11,1
6852066429,6,-6,-9,1,-5,-18,-14,-6
6852082914,-7,-8,-3,-3,1,13,5,2
6852082914,-5,3,-3,-3,-5,1,9,-3
6852088958,-7,-3,-1,-4,0,-2,-5,2
6852088958,8,4,2,-6,-5,-1,10,-1
6852097900,5,5,1,5,1,-5,8,-1
6852097900,-5,3,-2,1,-4,-2,7,-4
6852111468,-5,-12,-3,-7,-7,-8,-62,-5
6852111468,0,-4,3,4,6,13,53,8
6852120408,-3,3,4,-1,-2,-5,12,-7
6852120408,14,6,1,2,1,3,7,8
6852126446,2,0,1,0,-2,-10,-10,-7
6852126446,0,7,-3,-1,-3,-13,-22,-1
6852142912,2,5,-2,0,4,10,7,5
6852142912,-9,-5,1,-1,-4,-3,11,-8
6852148982,-9,-16,-5,1,3,4,18,-2
6852148982,-6,6,4,5,-2,0,-6,-2
6852157911,-9,-17,-1,-2,0,0,3,-2
6852157911,15,-13,-2,-6,-5,-6,-19,-2
6852171431,16,38,4,-6,-4,1,6,5
6852171431,-12,-33,-5,1,2,4,-2,-5
6852180345,6,31,-1,0,0,-2,-10,1
6852180345,13,21,7,-6,-5,1,-7,2
6852186335,-5,48,5,-7,-3,2,15,-2
6852186335,-18,-67,-14,16,1,-3,0,-3
6852202927,-5,63,-2,-16,1,2,0,-2
6852202927,-24,-70,-20,-4,3,-2,-3,3
6852208945,45,-72,29,-14,-15,-4,9,12
6852208945,-8,52,-36,-20,14,1,-13,-9
6852217811,-26,70,48,23,-12,-2,-4,-9
6852217811,-22,-91,-64,-10,14,2,-4,-15
6852231496,14,-1,5,-8,-6,1,6,11
6852231496,21,-21,19,7,-1,-1,0,11
6852240334,16,0,12,5,6,10,6,4
6852240334,-1,13,14,-14,-8,0,-2,-6
6852246342,-13,-21,-16,12,2,-3,2,-2
6852246342,6,-34,7,1,0,1,-7,-5
6852262823,-3,54,-7,3,2,-3,0,4
6852262823,-6,13,13,-7,-19,-14,-9,0
6852268988,-14,-12,-32,-1,8,8,9,-7
6852268988,10,55,27,5,-3,1,-2,8
6852277808,9,-67,-21,-12,6,2,-9,-1
6852277808,14,127,16,3,1,-1,-1,-3
6852291408,-10,-31,-4,0,-14,-8,23,-2
6852291408,-10,32,18,-13,-30,-12,-1,3
6852300292,-8,-48,-34,-1,34,13,3,-2
6852300292,4,36,6,9,1,-5,-3,-1
6852306416,-12,27,3,4,16,0,13,-2
6852306416,5,-19,-5,-18,-25,-4,-11,-8
6852322804,0,-60,5,-14,-28,-15,-10,2
6852322804,-2,-29,11,54,55,13,9,3
6852329013,-10,20,-1,7,-1,24,-4,-5
6852329013,0,-19,-13,1,-14,-7,2,1
6852337880,0,-10,14,17,-6,-29,-6,-6
6852337880,1,-11,15,9,-3,17,5,7
6852351480,3,4,-19,-54,12,-16,-14,-2
6852351480,-2,-15,3,-15,-30,21,31,2
6852360296,-2,-18,5,2,18,3,2,-3
6852360296,-6,-31,-26,-18,-4,2,-1,-1
6852366463,-2,-15,2,22,0,-10,-8,-6
6852366463,6,19,-23,2,2,-7,-6,-4
6852382815,2,-5,-4,-19,-24,-7,2,4
6852382815,4,-6,2,20,8,-3,2,-2
6852389015,-5,15,5,-17,2,0,-8,-3
6852389015,-13,-19,-13,-26,17,12,-1,0
6852397789,5,4,-14,16,-7,5,2,2
6852397789,1,8,-7,-11,-18,-14,-3,-2
6852411451,-1,10,-14,-3,-7,1,-2,0
6852411451,4,21,26,41,15,-8,-7,1
6852428514,-1,-1,-6,-17,-3,-8,-9,-3
6852428514,0,6,4,-19,-9,8,9,-4
6852429486,-6,10,11,10,-4,6,0,4
6852429486,1,6,8,12,9,-5,-8,-5
6852442928,9,2,-21,-7,-5,-6,10,-3
6852442928,6,13,0,2,2,0,14,4
6852448899,8,5,8,17,-3,-1,13,4
6852448899,-10,-8,-5,-6,4,-15,-14,-2
6852463969,-17,-16,0,2,8,15,40,1
6852463969,2,0,7,-1,-8,0,-9,-1
6852471405,7,2,-4,0,-3,-1,-19,-1
6852471405,-3,0,-5,-12,-1,-6,-5,-4
6852480343,-2,-7,-2,-8,-6,-5,-13,-5
6852480343,-6,-13,4,1,1,6,12,8
6852486450,-5,-8,0,2,0,-2,-4,-4
6852486450,7,4,-3,0,7,5,2,-2
6852501435,3,4,10,9,1,-4,1,1
6852501435,4,-1,0,-4,-4,0,-12,-4
6852508953,-11,-3,-4,-2,-7,-9,2,-4
6852508953,-1,1,-3,0,0,-10,9,-4
6852523934,-12,12,2,-1,1,4,-10,-2
6852523934,5,-20,-5,-11,-9,3,-11,1
6852531418,-8,-4,0,1,-3,-11,-10,-4
6852531418,12,20,1,5,8,11,-13,0
6852540320,6,-8,-2,0,-2,-1,2,-1
6852540320,-8,18,2,-3,-7,-16,7,-1
6852546437,8,9,2,4,1,8,3,-1
6852546437,-5,-3,1,1,3,4,5,2
6852561464,14,21,3,-2,-3,5,-4,2
6852561464,-2,-29,1,-1,-3,-6,-11,-5
6852568962,-38,-2,-3,2,3,-5,3,-8
6852568962,0,2,0,-5,0,1,7,-1
6852583962,32,-15,-13,-10,-14,-3,-12,11
6852583962,11,78,14,2,-6,-10,-9,1
6852591398,-35,-90,-30,-21,0,0,-1,-7
6852591398,-20,-69,-6,12,16,14,0,-2
6852600319,23,102,18,15,15,7,-2,8
6852600319,-5,-70,-15,-24,-20,-9,-8,-3
6852606402,8,8,19,2,-9,-7,-11,-5
6852606402,8,38,4,36,-10,2,4,5
6852621508,-8,0,-44,-55,9,-5,-6,-5
6852621508,-2,57,9,17,6,3,4,3
6852628967,19,-49,-13,-12,-3,0,0,3
6852628967,10,61,19,-28,-14,-12,-4,0
6852643945,-30,-83,-4,41,7,4,-4,-13
6852643945,-4,56,9,-1,-4,-1,10,3
6852651433,-16,-4,7,18,11,9,-10,-1
6852651433,22,12,-20,-31,4,-3,-10,0
6852660305,37,-18,3,8,-10,-2,6,12
6852660305,-59,-36,-11,-14,0,-1,-11,-21
6852666437,-3,-7,-5,11,-12,-3,3,-1
6852666437,-3,8,12,0,3,-5,0,-4
6852681382,-8,-70,3,7,3,3,-5,0
6852681382,18,34,-4,7,0,-1,0,1
6852688933,0,47,8,-3,-1,-7,8,9
6852688933,3,10,-4,-1,3,-14,-6,-6
6852703953,-11,19,11,-6,13,24,-12,-1
6852703953,21,-15,-11,-13,-14,9,-9,0
6852711382,14,35,-5,-15,-14,-12,-7,-6
6852711382,0,1,-1,32,38,1,-20,5
6852720282,-21,-15,13,9,-17,-6,6,-6
6852720282,-4,-20,-16,-34,13,-4,-5,-1
6852726459,2,33,-2,-21,-27,-7,-8,-4
6852726459,-13,-48,-7,-7,3,-4,-2,-4
6852741415,2,4,-6,1,-16,-13,-5,-7
6852741415,1,-14,5,7,-1,-11,-2,-1
6852748939,13,-27,-1,5,16,2,1,1
6852748939,-5,-19,3,9,-42,18,9,-1
6852763829,4,8,3,17,16,-7,10,3
6852763829,-9,-29,-6,7,7,3,-2,-3
6852771348,2,-10,17,18,-7,-7,2,0
6852771348,-9,0,-8,-21,-3,3,-1,-6
6852780301,-10,11,0,-26,-13,-10,-3,-3
6852780301,17,-1,-2,9,-7,-9,-2,2
6852794659,3,18,15,9,18,8,-3,2
6852794659,-6,-1,1,-15,-19,-11,11,0
6852801452,-21,-20,-13,16,18,2,-24,-13
6852801452,-8,-21,1,1,3,2,7,-5
6852808949,-7,0,-6,-19,1,4,0,-2
6852808949,19,29,-1,15,15,1,19,4
6852825284,3,14,-1,-21,-16,-12,-13,8
6852825284,-7,-4,34,60,2,2,-14,-9
6852831459,-2,9,-43,-56,-19,-6,-3,-1
6852831459,-5,-26,-19,-19,-1,5,2,-3
6852840316,-8,2,-4,-6,-2,0,7,2
6852840316,0,-2,4,4,-2,1,2,1
6852854486,3,6,1,25,3,6,3,2
6852854486,-3,7,5,0,0,-5,-14,-3
6852861256,2,1,9,4,-1,-5,6,-3
6852861256,-5,0,3,-9,-2,0,4,5
6852868916,11,-17,11,14,9,-20,-9,-9
6852868916,-15,-1,-2,1,-1,25,7,0
6852883909,-24,-12,4,2,0,4,10,-4
6852883909,12,2,-8,-18,-8,-10,-18,-5
6852891395,1,7,2,5,6,-8,-4,5
6852891395,5,-11,-1,2,3,-12,16,1
6852900319,14,2,0,-6,-9,9,-1,-2
6852900319,-9,1,-4,-4,9,18,8,2
6852914634,16,3,2,7,0,-11,-36,1
6852914634,-35,-17,4,2,0,7,-9,0
6852921448,5,17,8,3,1,5,-8,-3
6852921448,-10,-22,-19,-13,-2,-7,9,-1
6852928918,14,5,12,14,11,13,11,1
6852928918,-5,-30,-8,-6,-11,-11,-2,2
6852943908,-13,24,-11,-6,-2,-8,-5,-3
6852943908,5,-28,-3,-11,-7,-4,-11,-9
6852951417,-14,3,13,10,-3,9,28,6
6852951417,28,73,-3,-4,12,0,-1,6
6852966434,-34,-32,-10,8,-3,-3,4,-10
6852966434,21,-34,-26,3,11,1,5,4
6852974614,1,39,15,-2,-12,0,-5,-7
6852974614,15,-16,-22,-16,-3,-1,-3,2
6852989586,-16,-74,5,9,-3,-4,-1,2
6852989586,32,125,22,2,-8,-6,0,4
6852990299,-29,-23,-14,-17,5,-2,-6,-9
6852990299,-18,-4,1,-1,-3,-4,-7,-12
6853003956,20,-8,-21,9,-5,1,5,4
6853003956,-14,-19,-11,-36,-1,1,-1,2
6853011417,25,60,-5,14,1,5,4,8
6853011417,1,0,20,1,-9,-8,-4,-4
6853026458,-26,-51,-1,-5,0,-4,3,-4
6853026458,19,56,27,8,-10,-9,-10,5
6853034589,-8,-56,-31,-16,2,5,-2,-11
6853034589,2,-34,4,15,0,1,-9,-4
6853049610,19,45,14,-27,-10,-6,-5,1
6853049610,-14,-39,-4,19,11,5,3,-1
6853050297,-11,-18,-9,-5,-4,-4,5,-1
6853050297,-9,-6,-7,-6,-3,2,7,1
6853063866,3,32,8,24,17,-7,-13,-1
6853063866,18,44,-2,-17,-32,-1,3,0
6853071449,-17,1,0,5,10,9,6,-3
6853071449,-13,0,6,5,21,2,-7,-2
6853086327,17,24,-4,-16,-47,-8,-18,1
6853086327,-4,-24,1,15,24,13,46,4
6853094502,20,11,17,4,5,2,-5,11
6853094502,-16,-13,4,27,0,-5,6,-8
6853109628,10,9,-5,-10,14,0,5,2
6853109628,-16,-34,-11,-24,-22,-6,-11,-6
6853110291,-6,-16,-4,-7,-15,-13,-6,-5
6853110291,19,5,-3,-23,3,-12,1,0
6853123949,3,-8,4,20,18,15,7,-1
6853123949,-5,-15,-7,-13,-27,-17,-15,-3
6853131409,-24,-34,-2,7,10,6,2,-12
6853131409,2,-2,-16,-12,-6,-2,-5,0
6853146346,-6,15,10,24,16,2,4,-5
6853146346,-13,-17,-5,-8,-3,-1,-12,3
6853154647,23,32,-7,-28,-16,-11,2,5
6853154647,-11,-9,21,64,-9,-3,-15,-11
6853169571,-6,-11,-40,-80,-3,-8,-5,2
6853169571,10,13,-1,39,31,23,17,7
6853170272,5,12,4,28,-6,-7,-5,-1
6853170272,9,-5,2,11,-13,-1,-4,2
6853183906,-16,-24,-4,-15,10,0,-1,-4
6853183906,-10,-13,-6,7,4,-11,-11,-6
6853191299,-5,-6,4,30,19,9,5,1
6853191299,6,3,-13,-29,-16,-7,1,4
6853206430,12,23,10,22,3,-4,6,1
6853206430,-5,-3,-9,-16,3,6,-3,-4
6853214630,-3,-3,14,12,-2,18,3,-1
6853214630,-8,2,-6,-11,2,-14,-2,-1
6853229525,6,6,0,-3,-9,-13,-14,-1
6853229525,-5,-2,0,1,3,9,2,-5
6853230352,6,5,2,-13,-15,-60,-10,-14
6853230352,-7,0,1,-5,14,47,-30,20
6853243938,2,-7,-1,-1,-5,-9,-2,-7
6853243938,7,-7,5,5,2,13,-54,4
6853251465,-8,-2,0,-9,-4,-14,11,-16
6853251465,-5,-16,-3,-5,7,-5,54,40
6853266438,8,-1,7,9,-5,3,-28,0
6853266438,-15,-11,0,-3,1,0,-11,-2
6853274576,10,2,-5,-7,-2,-8,-26,-8
6853274576,-6,8,1,-5,1,18,92,13
6853289580,16,-18,-3,2,1,17,0,1
6853289580,-9,21,10,1,-3,-4,20,-7
6853290269,-18,-22,-23,-11,-1,10,0,-3
6853290269,13,16,2,-3,-5,-19,-33,-13
6853303937,6,-34,5,2,-5,-6,16,1
6853303937,4,11,-4,-4,-5,-12,7,-7
6853311445,-2,-14,6,4,1,15,3,9
6853311445,-27,-34,-24,-18,-6,-13,-30,-20
6853326362,9,59,-9,-22,2,13,9,5
6853326362,6,-27,-2,4,9,-8,9,1
6853334662,13,-9,8,-5,-10,1,-5,13
6853334662,6,61,14,11,8,-7,-12,-10
6853349578,-21,-39,9,13,-9,2,9,-5
6853349578,12,2,11,-1,4,-7,0,-1
6853350225,-14,-31,-26,-30,-7,2,4,4
6853350225,4,45,13,22,9,6,-2,-4
6853363801,11,-8,-30,-7,-5,-1,4,1
6853363801,-30,-64,3,33,-13,-13,-6,-6
6853371420,-18,-68,11,2,17,12,4,3
6853371420,6,54,13,-29,-11,-4,-12,-6
6853386386,10,22,23,6,-10,-3,1,3
6853386386,-16,7,-42,-9,7,-4,3,0
6853394343,12,40,4,15,-3,0,-3,-1
6853394343,-18,-66,-14,9,-1,-1,-8,-11
6853409565,6,-10,-14,-10,9,1,7,-1
6853409565,11,44,34,-3,-14,-4,-2,2
6853410248,-9,-17,-29,-9,-2,-2,-5,-5
6853410248,15,2,2,11,-3,9,16,-2
6853423806,5,32,17,23,17,-22,-16,2
6853423806,-33,10,-5,7,0,17,8,-9
6853431407,-12,30,-2,-26,-9,3,5,2
6853431407,12,-19,-15,-17,0,-4,-29,-5
6853446330,4,17,8,12,12,0,28,5
6853446330,10,1,4,-10,-2,13,10,1
6853454581,10,0,-9,21,-1,4,-3,0
6853454581,4,-22,9,-8,-16,-33,-37,-6
6853469565,-11,-20,-8,4,-5,17,19,-1
6853469565,4,-11,-5,-11,-1,-16,-11,3
6853470255,7,11,10,6,2,16,2,1
6853470255,-4,-21,-16,-5,5,-12,-7,-3
6853483862,-16,4,4,1,-12,7,-11,-7
6853483862,0,-14,-12,-23,-11,-15,-1,-3
6853491393,2,11,-2,-11,-1,-8,0,0
6853491393,-6,-13,9,10,-2,4,11,-1
6853506431,-20,-13,-13,-37,-2,7,-7,-7
6853506431,13,19,11,3,4,-1,2,1
6853514587,-3,4,-5,-1,18,6,2,1
6853514587,6,21,2,-9,-18,-9,-3,-2
6853529584,-1,0,5,24,13,7,8,5
6853529584,2,10,7,-16,-17,-18,-15,-8
6853530247,-2,-2,10,21,13,1,0,-4
6853530247,1,22,9,1,4,1,8,5
6853543975,-11,-13,11,9,4,7,1,-1
6853543975,-8,-23,-7,-6,-9,-4,-1,-2
6853551434,2,-32,-12,7,2,-1,-2,-2
6853551434,-27,2,5,19,12,7,2,-5
6853566376,18,-4,-1,-25,-8,-9,-5,1
6853566376,-7,-7,-7,36,9,2,-1,1
6853574631,-3,1,-19,-34,-16,-16,-3,-1
6853574631,15,-14,-11,-1,0,16,6,4
6853589602,10,16,4,5,-10,-12,-18,-3
6853589602,8,-1,-5,-7,-1,-4,3,6
6853590291,0,12,14,2,-9,1,7,-1
6853590291,3,-6,-12,-4,2,-51,-27,-10
6853603880,-3,11,14,23,33,74,45,24
6853603880,28,8,-3,-7,-3,-5,0,1
6853611367,-8,18,11,9,5,12,-10,-5
6853611367,-13,-30,-2,-12,-10,-22,-4,14
6853626371,-6,3,2,-10,-19,-31,-32,-24
6853626371,-6,11,1,-2,8,11,2,-4
6853634613,15,1,5,6,2,9,24,8
6853634613,2,18,0,0,6,9,-28,2
6853657681,-2,-2,-9,-9,-10,-3,-10,2
6853657681,11,5,5,4,4,-1,15,7
6853658446,3,51,6,-2,-7,-8,-12,-8
6853658446,-6,-58,-12,-6,-1,7,14,-4
6853663862,-50,-10,-2,-10,-10,-14,-10,-13
6853663862,13,-1,8,7,4,-3,2,4
6853671445,8,-36,4,-13,-6,0,-3,6
6853671445,8,10,-1,28,17,18,8,-4
6853686318,7,12,-17,-12,-7,-16,2,-1
6853686318,-3,-15,25,6,-5,5,-7,-6
6853694501,-9,-11,-14,9,5,0,4,6
6853694501,18,21,7,1,5,13,13,3
6853708890,-15,-41,-43,-53,-16,-14,-6,-10
6853708890,-7,18,22,66,17,3,4,-1
6853717081,-1,17,-19,-26,11,5,0,5
6853717081,-19,-32,-5,-3,-10,-2,4,-8
6853723926,20,63,31,20,7,3,4,4
6853723926,-21,-42,-37,-30,-9,-5,-8,1
6853731398,6,4,20,12,-4,-5,0,1
6853731398,-7,-2,-3,-23,-13,5,3,-4
6853746385,-1,-7,6,33,2,-17,-7,-1
6853746385,5,25,-22,-52,-10,7,2,3
6853754601,-7,-4,4,14,-2,-4,-6,-7
6853754601,3,25,4,-2,13,17,13,1
6853768902,3,-5,18,35,1,-5,-3,-3
6853768902,6,19,-14,-15,-1,-5,0,0
6853777102,20,28,8,4,-7,-8,3,4
6853777102,-18,5,-16,-16,-6,-8,-3,-6
6853783856,-4,2,-7,-3,1,4,1,0
6853783856,-6,-10,2,-5,11,-16,-1,1
6853791395,-14,-5,1,-1,-40,25,-11,-7
6853791395,-1,-8,1,-4,-2,-5,-5,-9
6853806394,18,7,24,12,13,2,-6,2
6853806394,-18,-35,-47,-35,0,-14,-8,-2
6853814604,12,-9,3,3,-3,-11,0,1
6853814604,8,13,0,-5,1,-1,4,2
6853828881,-12,-11,-8,-10,-13,-1,-7,-5
6853828881,13,21,20,13,19,5,3,2
6853837139,-16,-21,-16,-25,-16,-2,-2,-4
6853837139,1,-6,-1,21,20,3,2,3
6853843910,-2,-9,9,7,6,-5,0,-5
6853843910,-17,-21,-4,-31,-5,8,1,-6
6853851399,1,-8,-3,-5,4,-5,3,0
6853851399,1,1,-11,-15,-13,-11,-5,-4
6853867769,3,-10,-11,-5,-7,-3,1,-1
6853867769,15,16,-3,3,-13,8,3,2
6853874603,-12,-11,9,-1,6,-9,-7,-6
6853874603,10,-6,-6,-18,4,10,7,3
6853888884,10,4,-15,-5,-8,-5,1,5
6853888884,-5,-15,6,9,10,2,-2,-5
6853897056,-27,-25,2,-8,2,-3,-1,-8
6853897056,6,21,25,32,4,1,1,2
6853912064,-4,-26,-21,-20,0,1,-1,-2
6853912064,2,14,13,8,-4,-8,-3,-3
6853912672,-13,-11,4,12,5,-11,-7,-6
6853912672,-12,4,-2,-10,-8,11,4,-2
6853926378,-13,-14,-6,-8,-5,-3,5,2
6853926378,-4,-21,-13,8,-6,6,-4,-3
6853934583,12,8,-4,1,6,-11,-7,-3
6853934583,-1,-9,-12,-6,-4,17,-4,8
6853948887,4,13,15,5,6,7,20,8
6853948887,-21,-2,8,9,0,-36,-1,-4
6853957144,5,8,-6,-1,3,22,-16,19
6853957144,10,-4,1,2,-5,-13,38,-18
6853972058,13,2,-4,4,1,-3,-7,6
6853972058,-13,-6,3,0,-4,7,11,-20
6853972836,3,16,3,3,3,0,-9,22
6853972836,-1,-14,5,7,0,-10,0,1
6853986319,7,5,-1,-8,-5,8,-21,14
6853986319,21,42,0,-6,-10,-22,-7,-17
6853994566,22,-89,-13,-1,3,29,-8,-4
6853994566,-21,51,16,16,7,-14,3,5
6854008839,-33,-75,-41,-15,-6,-8,-5,-25
6854008839,35,-7,2,-6,-6,9,-3,14
6854016934,-6,27,9,29,16,3,22,1
6854016934,-35,4,-6,-5,-4,-7,-19,-1
6854031751,-4,36,-22,-24,-10,-3,2,-10
6854031751,-9,68,20,24,-6,-1,-10,0
6854039521,-12,-81,-47,-38,-7,-14,1,-11
6854039521,33,11,26,-1,-23,-5,-3,1
6854046409,-14,-13,26,65,21,15,7,-1
6854046409,29,57,-10,7,16,20,9,12
6854054565,-2,37,-53,-29,9,-13,2,-9
6854054565,-29,-123,43,-10,-23,-6,-17,-2
6854068872,5,85,7,6,10,-11,-7,-5
6854068872,-15,12,-43,-14,-7,0,23,6
6854077023,35,7,48,17,2,7,-22,-5
6854077023,-26,-31,-45,-2,1,2,-5,0
6854092076,7,60,49,-13,-7,3,13,2
6854092076,-13,-63,-7,11,23,9,-6,-3
6854092795,6,35,-14,-10,-19,-16,4,1
6854092795,32,14,-16,-23,-15,-11,-11,-2
6854106387,-12,2,19,-3,0,-1,6,-2
6854106387,-2,-7,-16,-22,-15,-24,-8,8
6854122141,-4,17,3,5,8,23,28,-9
6854122141,0,26,19,25,23,12,-78,2
6854128877,5,-9,-10,-6,-11,-46,-10,2
6854128877,1,-13,3,18,8,68,3,-2
6854137705,8,3,18,2,-14,-30,3,-3
6854137705,-10,12,3,-17,-39,-26,-27,-4
6854151381,-7,-39,-34,9,61,3,8,-1
6854151381,-1,-32,14,-1,-2,-11,-5,2
6854160291,0,19,9,7,-11,5,-12,-1
6854160291,2,-5,-15,25,21,22,25,-3
6854166393,12,-19,-8,-9,-38,-12,-6,1
6854166393,-20,-41,10,-53,6,-25,-4,-10
6854182787,-16,-3,-4,15,10,8,6,-1
6854182787,19,18,-28,-8,26,-23,19,1
6854188939,-4,-18,20,35,-32,27,-2,-3
6854188939,7,22,2,-22,-11,-17,-7,-2
6854197791,-9,8,-8,-11,3,-4,-5,0
6854197791,1,-5,5,12,32,14,17,0
6854211413,5,5,-3,-12,-3,0,6,0
6854211413,1,20,7,-24,-30,6,-23,-2
6854220250,2,20,-16,27,24,-6,-1,3
6854220250,2,30,8,19,-9,-7,13,-3
6854226279,-14,-10,8,-19,-3,4,-12,-10
6854226279,4,-4,7,43,-7,-2,7,2
6854235271,-26,-14,3,-7,1,-3,4,-1
6854235271,3,-8,-14,-30,-5,11,6,0
6854248787,8,-2,-1,-4,-3,-5,-7,3
6854248787,0,-19,9,15,-14,-4,-2,1
6854257768,-6,-12,-10,-10,-5,-13,-3,-6
6854257768,3,-10,4,11,9,20,19,5
6854271375,9,-5,-10,-22,2,5,-2,1
6854271375,-15,-8,4,21,6,0,-3,-4
6854280266,10,7,18,2,-13,-27,3,1
6854280266,-6,-10,-12,-13,-3,35,-1,-2
6854286384,30,0,-5,8,5,-1,4,4
6854286384,-36,-11,-2,7,5,-37,-4,-1
6854295264,-2,-6,9,2,8,80,23,2
6854295264,12,1,-5,-20,-16,-21,-6,3
6854308875,-11,0,-5,3,-2,-3,-8,-7
6854308875,7,10,-4,1,6,7,22,5
6854317745,4,3,-2,-11,-6,-15,-18,-2
6854317745,17,7,4,6,-2,-1,27,9
6854331362,-4,1,-2,-4,-3,1,1,1
6854331362,-36,-27,-9,-10,-2,4,-11,-10
6854340257,-5,-5,7,15,7,-3,-3,-8
6854340257,8,1,0,5,0,3,-6,-3
6854346362,7,7,-10,-19,-2,-11,-1,2
6854346362,9,7,4,-9,-6,3,3,4
6854355260,-2,8,1,12,-3,-19,-3,3
6854355260,-7,-7,2,-11,-7,4,-5,-4
6854368867,0,19,8,25,6,2,0,2
6854368867,-1,-35,-17,-17,9,11,-1,1
6854377729,16,7,-1,3,-6,-4,-1,3
6854377729,-7,-5,3,-2,-6,-16,-7,-6
6854391405,1,25,0,-25,-9,2,0,-3
6854391405,11,-14,2,23,13,14,5,4
6854400209,15,25,1,-17,-6,-11,-6,-1
6854400209,-23,-4,-22,-19,-10,-13,-5,-4
6854406296,4,-9,10,-3,2,8,5,1
6854406296,9,24,7,20,8,3,-1,-1
6854415286,-22,-14,4,-10,-7,-4,-2,-4
6854415286,14,4,-3,-5,1,1,-2,3
6854428816,-5,-30,-2,6,4,6,2,-2
6854428816,20,34,16,12,-4,-6,-2,5
6854437736,-33,-22,-12,-16,-10,-7,-4,-5
6854437736,2,31,-6,-9,8,12,6,-5
6854451408,3,-13,-5,-5,-10,-9,-7,-1
6854451408,24,29,0,3,13,4,9,10
6854460222,-15,-10,2,13,-3,-6,-9,-10
6854460222,-20,-35,-4,5,4,-1,6,-5
6854466250,-3,-9,-18,-4,3,1,-3,1
6854466250,0,9,2,-14,-24,-8,-4,-3
6854475237,12,7,-1,-3,21,0,4,2
6854475237,-3,9,5,4,1,-11,1,-1
6854488932,8,-1,5,12,-16,4,-7,-3
6854488932,-23,-26,-11,-7,9,6,-21,-5
6854497737,8,12,0,-14,-17,-15,-17,0
6854497737,3,6,10,19,17,-20,1,2
6854511382,-13,-6,-26,-28,0,21,24,-1
6854511382,32,27,2,15,16,3,-5,6
6854520200,-35,9,-1,-13,-11,-11,-2,-8
6854520200,-7,-8,15,34,-19,18,0,-4
6854526387,-13,-18,-22,-34,-2,-12,-16,-1
6854526387,-5,-10,-6,13,9,0,14,-6
6854541333,16,-5,-2,-15,6,13,17,7
6854541333,3,-2,14,-13,-20,-22,-16,-5
6854548829,-8,-13,-18,12,3,2,0,0
6854548829,-12,-36,-10,-4,3,4,4,-5
6854557754,7,-27,-2,-22,-1,-3,-12,1
6854557754,-5,-3,8,-16,-15,2,-1,2
6854571390,-4,2,4,17,19,16,7,-1
6854571390,-7,-13,5,-16,-14,-9,-9,-4
6854580242,-1,-3,-10,-2,-13,-12,-10,-1
6854580242,2,2,11,2,7,13,11,0
6854586375,-2,3,-5,-12,2,-17,-7,-4
6854586375,2,5,4,-2,-28,-3,2,0
6854595225,17,23,1,3,1,1,2,7
6854595225,-4,-12,-10,-6,4,-8,-5,-1
6854608899,-2,5,2,0,-6,-3,6,3
6854608899,-9,10,15,29,21,14,6,-6
6854617727,6,-4,1,10,-5,-5,17,2
6854617727,20,24,-2,6,10,-66,-13,10
6854631288,1,8,3,1,-2,97,18,-2
6854631288,-2,-6,-9,-15,-12,-39,-9,-5
6854640215,1,-9,-1,14,16,27,4,-1
6854640215,-5,-4,0,4,1,-26,20,10
6854646338,-10,-7,7,-8,-20,7,-12,-15
6854646338,12,-5,-8,-7,4,-23,28,7
6854655235,-17,-4,1,5,-10,-14,-70,-15
6854655235,-6,-11,-8,-6,-5,32,12,-7
6854668903,-4,-8,3,2,-7,-46,-10,-2
6854668903,0,-9,-8,-13,-5,27,-16,-8
6854677719,-15,-2,4,6,-9,-32,12,4
6854677719,30,0,-19,-14,0,-15,-6,-3
6854691356,-16,10,13,6,2,8,-2,10
6854691356,-12,-8,6,-9,-4,-17,0,-12
6854700214,7,19,5,12,0,-1,18,5
6854700214,8,-6,-29,-7,-8,24,-13,-2
6854706425,-14,40,14,27,24,-4,5,-5
6854706425,6,-42,4,8,-11,-4,-12,7
6854715217,11,87,-22,-42,-3,12,9,-1
6854715217,-39,-48,-56,-15,8,27,0,-2
6854728910,27,9,-9,-16,-18,-34,-19,-7
6854728910,-10,40,24,9,0,5,3,-5
6854737709,-7,4,12,11,5,14,-1,-4
6854737709,19,-38,50,37,-10,-6,0,3
6854751378,-55,-39,-69,-29,2,-23,-8,-11
6854751378,43,61,-6,21,-4,6,-7,6
6854760271,-14,-8,-33,-19,5,4,6,3
6854760271,24,61,61,-9,-16,-1,-9,0
6854775240,31,96,-19,4,8,-6,3,8
6854775240,-54,-64,29,-17,-6,0,-11,-15
6854776722,25,25,26,22,3,3,6,0
6854776722,-26,-49,-31,22,22,20,12,6
6854788838,4,-23,26,37,-2,-10,-4,-2
6854788838,-3,-51,-35,-19,14,3,-4,2
6854797766,24,76,42,-10,-17,-6,7,11
6854797766,-43,-83,-56,-14,5,-2,-6,-13
6854812051,-8,-19,24,33,-18,-15,-11,-3
6854812051,-9,5,-25,-23,3,8,6,1
6854818764,-8,-67,27,28,3,-6,9,-4
6854818764,18,42,-1,11,22,32,-1,2
6854835211,15,-7,-11,-27,11,-31,0,9
6854835211,-8,-8,0,7,-4,-9,2,-3
6854836697,8,-21,-21,-20,-27,17,-10,2
6854836697,7,44,15,6,-1,-14,6,-6
6854848932,-17,-19,12,-11,20,2,4,-1
6854848932,0,19,7,-6,-3,1,-15,6
6854857691,7,-31,-15,19,4,27,5,0
6854857691,1,21,-11,-32,-33,-24,-8,-4
6854871161,4,-21,25,3,35,3,3,3
6854871161,-7,-3,3,26,-6,10,7,-3
6854880241,-8,-23,-16,2,15,-7,5,0
6854880241,-1,-8,9,-7,-23,5,-13,-5
6854895181,1,-9,-8,-54,1,-11,2,-3
6854895181,5,15,10,36,-9,-3,-2,-1
6854896656,-5,-11,-17,-10,22,-6,4,-3
6854896656,-12,0,9,11,-37,-12,-10,-7
6854908752,10,3,13,12,4,13,9,3
6854908752,10,24,-8,-14,1,-18,2,6
6854917742,-10,-16,9,14,-1,22,4,-4
6854917742,13,39,-8,-17,0,-21,-5,3
6854932042,-4,12,-4,10,-14,0,-12,-5
6854932042,-2,19,-4,2,-2,10,16,-3
6854938744,-2,14,7,4,6,-18,1,0
6854938744,0,15,8,4,14,2,3,0
6854955143,11,-1,4,12,-22,0,-2,3
6854955143,-1,-12,-1,-19,-10,-14,-12,-1
6854956687,-15,-36,3,4,3,-2,-5,-11
6854956687,-2,-11,-10,-6,20,19,11,1
6854968760,-1,-13,1,-5,-12,-8,2,2
6854968760,-8,-24,-12,-19,-7,2,-5,-2
6854977705,8,1,1,-1,-10,-11,-7,1
6854977705,9,3,10,-2,-1,15,-13,-5
6854992049,-13,-6,1,5,-4,-11,-1,-1
6854992049,-7,-18,-16,-9,-5,-4,-2,-5
6854998799,-7,2,-1,0,-2,2,-5,1
6854998799,4,4,5,-1,12,0,8,0
6855015158,6,0,3,-2,-7,1,-2,0
6855015158,-1,2,4,-3,2,12,-4,0
6855016671,-8,-14,-9,-8,-5,-1,-3,-6
6855016671,3,2,-2,-7,-1,-20,1,0
6855028824,-3,-12,-1,3,-3,16,5,-3
6855028824,4,-1,-3,-4,-1,2,-9,0
6855043854,-12,-3,-5,-7,0,1,3,-4
6855043854,0,1,4,5,5,3,-2,0
6855052052,18,1,0,1,-8,-5,-2,4
6855052052,-14,9,-2,-3,6,-3,-10,2
6855058749,3,0,-3,-5,-4,-10,8,0
6855058749,2,0,4,2,5,8,4,-3
6855075141,-8,6,2,3,-1,7,4,-1
6855075141,-24,-10,-7,-9,0,-10,-4,-8
6855076711,14,28,7,-3,1,2,-4,-1
6855076711,-4,-2,0,5,-3,-3,0,3
6855097691,5,-2,-11,-3,5,2,5,2
6855097691,25,19,3,7,5,7,10,4
6855099196,-13,3,2,3,2,-3,-3,-4
6855099196,10,16,7,4,-4,-3,-5,-1
6855112075,-10,-7,-5,-27,-18,-9,-13,0
6855112075,5,-8,-3,22,13,1,2,-2
6855118808,16,98,13,8,0,0,2,-1
6855118808,-19,-66,-29,-15,11,1,-2,2
6855135211,-39,-41,1,1,-14,-2,-5,-7
6855135211,18,93,20,-5,-1,-3,1,2
6855136675,-18,-91,-20,-12,-12,-13,-9,-7
6855136675,14,33,15,20,4,0,0,1
6855148807,5,-47,8,25,12,8,6,-3
6855148807,14,-26,-15,-18,12,10,12,10
6855157763,6,-3,4,11,2,3,1,1
6855157763,3,13,-2,-8,-9,-8,-4,-1
6855172062,-14,0,-7,-10,-10,-6,1,5
6855172062,1,3,20,17,-6,-2,-3,-10
6855178869,-7,-26,1,9,11,-6,1,1
6855178869,-14,-29,-14,-5,-8,19,-15,-6
6855195258,19,35,-5,-23,-13,-7,3,5
6855195258,4,-10,-1,20,7,3,-5,2
6855196669,-3,-1,-2,2,13,-5,6,3
6855196669,0,4,-17,-34,-24,1,5,-6
6855217679,5,21,8,4,14,20,2,-3
6855217679,-5,-3,-12,-5,-17,-21,5,-1
6855219167,1,-7,11,31,0,-2,-18,2
6855219167,-10,10,3,-19,4,-9,13,-2
6855232059,0,11,8,31,22,13,-2,-5
6855232059,-2,-16,-16,-32,-15,-14,0,0
6855238855,2,8,-2,-11,-10,-7,-9,-3
6855238855,-12,-5,3,-10,3,-6,-5,-3
6855255204,-8,-16,-9,4,-20,-3,-9,-8
6855255204,-7,-17,-10,-28,8,2,9,-5
6855256742,-1,-22,17,-19,20,14,3,1
6855256742,-3,-8,-5,1,-22,-5,-6,3
6855285145,-2,-21,-2,30,48,7,2,-6
6855285145,-6,-18,7,2,-6,-2,-2,-4
6855286712,1,-12,-5,1,-25,-26,-2,0
6855286712,-1,4,-6,-18,-6,16,3,-1
6855292084,21,20,15,-11,10,9,0,9
6855292084,-9,-16,-24,-20,-6,-6,-4,-2
6855298793,6,-1,-6,-8,-10,23,7,2
6855298793,-20,-8,-3,25,7,1,2,-11
6855315065,10,16,2,5,-20,-21,5,2
6855315065,8,23,4,10,23,15,-1,3
6855316611,7,21,19,-8,-12,-12,-9,-1
6855316611,0,-9,-14,-5,8,-8,-4,3
6855337704,7,2,-16,-4,-1,4,2,3
6855337704,-1,11,0,13,-5,1,2,-1
6855339190,-7,-12,-12,-10,0,-23,3,-2
6855339190,8,2,4,7,-1,14,-8,0
6855352033,4,5,-8,-6,-7,2,-8,-4
6855352033,2,-8,12,6,-3,-31,18,9
6855358807,21,7,-10,-2,-1,27,12,-4
6855358807,-49,-22,-7,-9,8,71,-16,-13
6855375191,1,-15,-6,-4,-17,-64,-18,-1
6855375191,-11,7,11,-1,3,24,58,-14
6855376669,24,4,0,5,8,9,-15,24
6855376669,12,9,12,15,2,-43,1,0
6855397715,-29,-5,-4,-9,-1,12,-17,-4
6855397715,14,-5,0,5,-5,-1,30,6
6855399216,-16,-10,-8,1,1,-22,-7,-4
6855399216,8,6,15,4,-3,-15,9,3
6855412058,23,14,5,-5,-6,3,6,-5
6855412058,11,-13,-17,5,-2,-9,-42,1
6855418835,-37,-15,-24,-34,-5,13,3,-6
6855418835,20,49,17,38,3,-8,4,8
6855435174,-3,-32,-22,-39,-4,-7,0,-3
6855435174,6,83,18,8,-6,12,-14,2
6855436683,-11,-8,-23,-1,8,8,0,-10
6855436683,-13,-3,-13,-11,-6,-19,7,-3
6855457706,37,82,36,17,-2,3,4,15
6855457706,-35,-51,3,-20,-16,4,-30,-21
6855459168,21,35,29,14,20,14,11,11
6855459168,-31,-66,-13,-10,6,-15,-13,-10
6855471246,9,39,-58,-15,-8,6,8,7
6855471246,22,69,12,6,4,4,-11,10
6855480195,-47,-13,14,7,-9,-11,-2,-10
6855480195,18,96,50,27,4,1,9,9
6855495186,-21,23,31,5,7,11,7,-9
6855495186,-9,-104,-126,-32,-1,-4,-5,-4
6855496718,26,-12,85,16,4,-1,4,9
6855496718,-21,59,8,-40,-6,-6,-9,-13
6855517651,11,12,36,19,-7,-6,6,3
6855517651,10,9,7,1,-7,-9,-12,2
6855519206,23,22,-26,17,-3,-6,-1,0
6855519206,-25,-37,-15,-12,9,1,0,4
6855531372,-11,-16,-9,25,-24,-9,-10,-10
6855531372,-9,-21,8,-6,31,12,4,-4
6855540138,1,-25,-36,-14,-3,-30,-7,-10
6855540138,12,-1,14,4,-8,37,7,9
6855555215,-28,-19,-3,-6,-12,-19,-5,-6
6855555215,0,19,21,1,6,19,17,4
6855556700,-7,7,-14,13,-42,-1,-12,-6
6855556700,28,16,-17,-12,2,-29,1,6
6855577688,-5,-6,-4,-11,50,31,-27,-8
6855577688,-4,-22,15,-3,-22,5,56,13
6855579185,-8,5,-5,-2,22,-4,-1,-4
6855579185,1,-27,-5,41,28,-14,0,-6
6855591367,3,-62,-24,-33,-37,16,-5,-3
6855591367,-2,-3,7,-18,-9,-42,-21,-4
6855600192,-8,-14,-5,17,40,9,-3,-1
6855600192,11,-25,-4,-20,15,-25,2,3
6855614406,5,-14,10,27,9,24,13,4
6855614406,-2,2,11,37,21,2,-1,-3
6855621351,-6,9,-2,-17,-11,15,-12,-3
6855621351,9,-23,-5,-1,-19,-2,-14,2
6855628768,-8,2,-4,-36,-4,-16,9,-1
6855628768,-5,13,5,2,-7,0,-23,-2
6855637677,-5,-26,-9,-34,-29,-8,-7,-7
6855637677,8,1,-9,-1,0,-4,9,6
6855651966,-13,7,-3,-25,2,-4,13,-4
6855651966,-1,32,27,43,-11,4,-7,-3
6855658805,2,18,-31,-60,-6,-13,5,-1
6855658805,-2,27,10,15,-4,11,0,-3
6855674505,-1,11,2,3,-8,-12,4,2
6855674505,-10,-23,4,-8,-5,-7,-15,-5
6855681334,2,-9,-8,9,13,5,5,-2
6855681334,-2,-22,-14,-16,-19,2,1,0
6855688839,-1,-23,5,9,8,2,4,4
6855688839,1,-11,13,8,-2,-13,-7,-3
6855697719,-1,-9,-5,-3,-13,11,2,3
6855697719,5,-19,-11,-7,-2,-10,7,-2
6855712025,-2,-4,3,14,8,-23,7,4
6855712025,3,-5,-3,-11,2,46,-9,1
6855718808,1,-5,-2,10,4,-13,18,0
6855718808,28,6,0,-6,-15,-45,-22,0
6855734537,-25,-1,6,18,29,67,39,7
6855734537,-10,-12,-10,-18,-10,-47,-5,-3
6855741337,-2,1,1,7,1,-3,-3,2
6855741337,-14,-15,0,3,-6,-35,-17,-8
6855748840,37,16,0,-1,-13,4,-21,-7
6855748840,-19,-9,-8,-6,4,11,-23,-1
6855757671,5,5,6,13,4,-1,-12,7
6855757671,-6,2,2,-2,-5,18,2,-5
6855772074,-13,-7,-4,-4,-6,-10,-9,-7
6855772074,4,8,-4,-4,3,4,-1,0
6855778838,23,6,2,2,-8,-13,2,5
6855778838,6,10,9,7,4,22,8,-1
6855794537,-25,-12,-9,-8,-4,-6,-9,-7
6855794537,10,10,-4,-8,0,-13,1,1
6855801191,-2,11,1,18,-5,0,-2,-1
6855801191,10,10,-1,-13,-1,17,4,4
6855817703,6,-5,13,32,17,-7,10,3
6855817703,-28,-2,-2,5,-5,-1,-2,-7
6855819159,-2,-34,-10,-24,-6,-1,0,0
6855819159,-12,-2,12,7,-3,8,2,2
6855832087,25,89,-17,-24,-22,-30,-21,-4
6855832087,-15,-16,4,0,3,4,4,0
6855846268,-4,-6,-7,17,9,6,4,-4
6855846268,-2,15,-2,1,2,3,1,1
6855854495,19,46,33,14,1,-7,0,7
6855854495,12,20,3,-1,-2,2,1,-1
6855861260,-1,4,-22,4,-5,-6,-1,-7
6855861260,-7,-23,-31,-31,-14,-6,-8,-5
6855877586,-28,-45,1,2,11,6,1,-6
6855877586,19,59,19,-20,-12,-6,-3,-2
6855879139,-10,-11,9,16,7,4,3,0
6855879139,17,21,-1,9,15,15,8,3
6855891306,-1,23,-1,-6,-15,-13,-6,0
6855891306,-10,-80,-11,-7,2,-2,3,-2
6855900215,-17,26,1,-10,-16,-27,-6,-10
6855900215,7,2,7,12,-4,15,-3,0
6855914423,-4,-11,-15,-9,7,-15,3,1
6855914423,4,-12,-4,-4,0,-13,-6,-1
6855921311,-1,15,18,12,21,37,17,0
6855921311,0,11,13,6,1,-2,-14,0
6855937674,-6,-40,-10,-21,-21,-28,0,-4
6855937674,0,8,-5,12,-9,-3,2,6
6855939168,-11,1,3,-3,-3,0,-2,-4
6855939168,6,3,-1,7,-1,2,2,1
6855951282,-1,-13,-14,-14,15,24,14,-1
6855951282,7,8,-1,-5,-5,-12,-8,-1
6855960175,-2,15,1,-23,-24,-12,-7,-4
6855960175,3,11,8,24,27,-6,19,3
6855974373,-10,-14,2,-4,-42,15,-20,-3
6855974373,-1,10,-11,13,8,-1,4,0
6855981299,7,4,11,-18,-15,-14,-13,-2
6855981299,-2,-21,9,8,19,2,3,-1
6855997565,4,-20,-12,20,-1,-10,-4,0
6855997565,-5,-22,-5,-11,-8,0,1,-3
6855999127,8,1,-9,-10,-14,6,9,3
6855999127,-11,-24,2,-39,-11,-7,-5,-4
6856011312,-1,1,0,4,30,10,4,-3
6856011312,-3,-4,0,-2,-19,-16,8,-1
6856020167,0,-16,-10,-6,1,-7,-14,-4
6856020167,-11,-6,7,12,13,18,11,-1
6856034573,3,-6,16,15,7,-1,17,4
6856034573,2,-6,-18,0,-12,15,-19,-5
6856041322,5,4,-1,-10,9,4,14,5
6856041322,-19,-14,-16,-7,-13,-11,-6,-7
6856057708,7,-17,-1,8,2,-4,5,1
6856057708,3,-4,9,-15,4,3,2,2
6856059166,-11,-7,-8,10,4,-2,-4,-4
6856059166,-8,-5,-3,3,-4,5,5,-4
6856071282,9,-3,-6,-14,-4,-16,-4,-1
6856071282,-8,7,-5,-1,4,4,-2,-5
6856080182,-2,-11,0,-1,-1,-24,4,-6
6856080182,-2,-2,-3,-5,-3,20,-55,2
6856094364,-9,-3,7,-12,3,34,8,-11
6856094364,13,-5,-6,5,-6,-3,-4,8
6856101257,16,3,10,14,27,13,-2,7
6856101257,-14,-4,-16,-5,-12,-47,18,-6
6856117641,-11,-11,-7,0,-1,-15,-26,-12
6856117641,-9,-17,-8,-5,4,11,-1,1
6856119142,19,8,8,3,-3,2,-7,7
6856119142,4,5,0,-7,-10,-20,11,-4
6856131250,-11,-9,4,-5,-7,-7,3,5
6856131250,48,44,8,10,13,10,4,1
6856140185,-28,-16,14,-6,-11,-4,-4,2
6856140185,4,-39,-12,5,-3,8,2,-3
6856154492,22,33,-7,-5,3,-1,1,11
6856154492,-30,23,-10,-15,2,-2,-10,-16
6856161275,-4,-7,3,24,3,2,4,0
6856161275,5,-26,-21,-18,-9,10,-6,0
6856177667,18,-11,26,28,-9,-6,-7,6
6856177667,-10,-82,-40,-45,-1,-5,8,2
6856179166,3,62,2,25,24,13,-5,-7
6856179166,-22,70,-16,-9,-29,-22,0,-3
6856191197,1,-28,15,14,15,0,-5,2
6856191197,35,-81,19,40,17,17,18,10
6856200214,-12,42,13,-40,-14,-1,2,3
6856200214,18,84,-59,-42,4,16,5,-1
6856214421,30,-46,-5,6,-19,-18,-9,3
6856214421,-69,-63,5,-7,7,2,-6,-8
6856221286,-25,39,-16,-1,-19,-15,-16,-17
6856221286,31,14,20,-3,13,1,7,11
6856237679,-15,55,5,-10,-8,14,17,6
6856237679,27,18,13,8,-10,-14,-13,-3
6856239142,-22,-12,-7,-8,-8,2,-8,-10
6856239142,16,-32,23,19,-1,-5,2,4
6856251263,2,33,6,5,21,-9,-5,-4
6856251263,3,69,12,1,-16,7,-1,4
6856260141,7,-52,-11,3,13,3,17,2
6856260141,-19,30,16,19,11,-7,1,-3
6856274455,1,3,8,-32,-41,-12,-3,-2
6856274455,2,68,-12,-5,11,-20,-11,-6
6856281348,-13,6,-7,8,29,39,17,1
6856281348,-13,-42,17,6,-27,-11,5,0
6856297602,-11,-18,-24,-15,-18,33,-22,-7
6856297602,-6,-10,-3,11,20,-24,8,-8
6856299125,28,-17,12,29,5,4,3,5
6856299125,-10,-41,7,16,7,5,-6,-5
6856311297,-22,-23,-21,-21,-21,-18,-11,-6
6856311297,8,9,-7,-16,-6,0,15,9
6856320175,10,-27,-1,-4,-27,-9,-13,3
6856320175,0,-18,-1,28,11,-7,18,-3
6856334462,-8,-1,-6,11,18,-25,-3,-5
6856334462,-4,5,4,-18,-9,41,8,1
6856341153,10,-18,1,2,-4,-20,9,-5
6856341153,-4,14,0,1,-6,5,-36,4
6856357639,-12,-6,-9,-9,8,16,1,-4
6856357639,1,7,16,46,24,-18,-1,2
6856359152,2,3,-10,-13,-12,12,-1,-1
6856359152,-5,6,4,-10,3,24,9,-3
6856371319,10,30,-12,8,9,-11,2,5
6856371319,-27,-7,-3,-31,-12,-6,-16,-15
6856380150,-10,21,-19,1,0,-1,-13,-4
6856380150,2,14,13,6,0,-4,-2,-4
6856394497,2,7,-4,33,24,2,7,2
6856394497,2,2,-2,-1,-22,-9,-1,-3
6856401362,1,-20,-7,-3,12,-1,1,3
6856401362,-2,-21,-2,-13,-4,-6,-2,0
6856417343,-12,-26,5,-6,-8,6,6,-5
6856417343,1,1,-4,-9,-18,-16,-9,1
6856433338,3,-10,6,-9,7,3,-1,2
6856433338,4,-12,-4,12,19,15,7,5
6856434286,8,3,2,-2,-1,1,0,-1
6856434286,4,2,3,3,2,-5,-12,-1
6856440190,10,-3,-8,-11,-12,-23,16,2
6856440190,-8,-4,7,-9,-9,-28,-21,-1
6856454402,-31,-28,-5,-5,8,25,-9,-10
6856454402,16,-3,0,4,4,21,8,11
6856461282,-26,9,11,5,-1,-2,-19,-6
6856461282,-7,-9,-9,-11,-9,-15,15,-11
6856477619,17,13,2,-3,1,-7,-38,5
6856477619,0,3,-2,2,-3,-6,-7,-1
6856479138,2,4,2,-3,-2,0,-20,0
6856479138,13,11,1,-2,4,15,30,10
6856491311,-11,21,1,-7,-7,-9,-7,-7
6856491311,7,-48,-15,1,0,-3,3,-4
6856500189,3,-4,2,-4,-2,0,2,2
6856500189,-25,-6,-2,-6,-3,6,-24,-13
6856514513,4,-2,0,-2,-2,-10,29,5
6856514513,4,19,3,3,-3,6,-2,-1
6856521267,-5,10,4,-21,-9,-2,12,-1
6856521267,15,-26,9,23,5,6,-2,3
6856537548,-8,-29,-27,-13,11,4,9,0
6856537548,-4,51,2,8,-1,-3,5,-1
6856539116,11,34,37,19,-19,-6,-13,-4
6856539116,-5,-20,-76,-56,7,6,3,2
6856551290,3,-10,1,-5,-3,-1,1,-1
6856551290,22,-25,0,-15,-5,-4,-1,2
6856560191,-21,8,8,15,-2,-6,-2,-4
6856560191,-2,21,6,5,-12,-13,-6,-2
6856574446,0,9,17,19,-1,7,9,-2
6856574446,-16,17,-31,-26,19,-1,-2,-1
6856581339,21,-41,-12,0,-16,1,1,1
6856581339,20,-2,17,1,10,-1,-4,3
6856596901,-25,-10,-9,-12,-15,-2,-6,-6
6856596901,3,45,20,12,37,-1,2,5
6856603779,-31,-26,-16,-13,-26,-5,-5,-9
6856603779,-17,-1,8,6,10,5,3,-4
6856611253,23,-9,3,-7,-3,-7,18,5
6856611253,5,37,10,9,0,4,-14,-5
6856620188,-1,47,-8,-3,16,-7,22,3
6856620188,-17,-28,-10,0,45,-1,-18,-4
6856634466,19,13,-1,-1,-85,21,-6,3
6856634466,-15,7,-4,-13,-15,-20,-1,-6
6856641269,14,-14,0,15,28,7,-1,-7
6856641269,1,24,16,6,-1,-7,-33,-2
6856656984,2,20,7,7,33,-2,71,8
6856656984,-13,-49,2,0,-27,-12,-4,-9
6856663758,7,-18,-38,-25,12,-16,22,9
6856663758,-6,-2,0,21,-24,24,-21,-15
6856671269,-19,-25,-1,2,27,4,48,10
6856671269,2,-6,14,-1,-20,-1,10,-1
6856680151,-1,-25,5,-18,-10,-23,3,-3
6856680151,9,4,-5,17,11,2,29,3
6856694399,-1,-1,-13,-16,-24,-9,-31,-6
6856694399,-6,-12,-7,17,30,10,-4,2
6856701261,7,8,21,8,-5,-3,-2,-2
6856701261,5,-9,-33,-51,-16,0,-1,5
6856716987,-3,0,1,-15,-27,-16,-34,-8
6856716987,-8,-11,15,24,27,18,21,-2
6856723760,8,-6,5,29,27,24,-18,4
6856723760,3,10,23,15,-28,-24,2,0
6856740079,-7,-9,-23,-41,16,4,-11,-5
6856740079,-9,-6,-3,-10,-14,-1,-6,-5
6856741635,5,5,9,5,-11,-2,-2,5
6856741635,-9,-7,-16,-33,-8,-4,8,-2
6856755145,15,17,7,4,3,-11,-11,-1
6856755145,17,4,-2,0,2,3,9,9
6856761321,-2,12,-4,-10,-2,10,-6,-3
6856761321,0,15,16,17,0,-12,7,-1
6856776253,-3,8,-4,7,8,4,-33,-4
6856776253,-6,-14,-10,-8,-8,7,15,-2
6856783757,0,-12,2,9,3,1,-26,5
6856783757,-3,3,0,-6,-13,-1,-15,-5
6856799389,-9,3,-1,1,10,-40,-26,-5
6856799389,-11,-7,-2,1,-11,31,29,-6
6856800134,0,-4,-5,-5,0,-5,-26,2
6856800134,-5,-16,2,-6,-1,9,32,4
6856815125,-1,-3,14,11,2,-6,-6,1
6856815125,-5,-14,-8,3,1,-25,-66,-6
6856821252,4,10,-7,-17,-8,6,39,11
6856821252,2,-3,-2,1,3,20,0,-8
6856836271,6,7,10,20,8,15,24,2
6856836271,2,7,-3,-3,-8,-24,24,1
6856843758,-2,-14,-10,-10,-2,5,-21,-12
6856843758,-31,-5,6,5,-5,-8,8,5
6856859401,1,4,3,8,7,1,21,-3
6856859401,-9,-7,0,-6,-8,10,-14,9
6856860183,22,-17,-4,-3,-2,-2,-3,-2
6856860183,20,-8,2,1,-2,-7,7,0
6856875196,-37,5,-2,-1,3,5,-21,-5
6856875196,9,3,0,-3,-3,1,9,3
6856881235,-8,-4,1,1,2,-4,-6,-3
6856881235,29,16,16,8,-2,-5,-6,4
6856896331,-8,2,-8,-11,1,3,-10,-4
6856896331,2,22,2,-11,-5,-1,-5,4
6856903758,-33,-41,0,7,5,0,5,-13
6856903758,4,31,-16,-2,1,0,-10,1
6856919387,31,34,0,6,-7,-8,-6,10
6856919387,0,-18,-11,-3,-14,-7,0,-9
6856920195,0,60,30,-34,5,0,1,3
6856920195,-34,-81,-8,28,2,5,16,-8
6856935151,36,-12,-19,-27,11,9,-12,3
6856935151,-50,-42,0,80,-2,-7,-11,-13
6856941274,-6,39,2,-35,22,13,11,9
6856941274,3,-22,-11,-44,-15,-9,-1,-2
6856956285,-16,-26,-19,-15,-12,-4,-6,1
6856956285,44,85,36,29,9,-2,-24,-4
6856963794,-12,-54,27,13,-9,-3,35,-6
6856963794,-50,62,-32,-25,-19,-18,-14,-12
6856979211,30,23,9,31,21,16,11,5
6856979211,-16,-12,14,-32,-6,-2,1,-1
6856986269,14,20,-5,23,-7,0,11,-1
6856986269,22,45,27,-9,2,-17,-49,-1
6856995162,5,-4,-15,7,-12,19,29,-5
6856995162,-30,6,-8,-14,3,-22,1,11
6857001190,21,-10,-33,1,-1,33,7,8
6857001190,6,-35,3,14,10,-9,-11,6
6857016262,-12,41,12,3,-10,-3,-9,-16
6857016262,-10,-20,-8,-17,-4,9,-9,-7
6857023756,20,-8,-15,-28,-11,11,-3,4
6857023756,0,27,34,69,23,10,13,-3
6857039437,10,-32,-11,-21,-24,-19,-6,7
6857039437,0,-16,-1,-32,24,21,14,0
6857040114,-14,-26,-4,44,41,-24,-11,-9
6857040114,15,-16,-1,-14,-26,14,-8,2
6857055110,-10,-24,1,-18,-34,-24,-10,-2
6857055110,6,-50,-16,23,21,9,9,-5
6857061312,-7,4,-11,-11,-11,16,32,6
6857061312,4,-23,-1,-7,5,31,12,10
6857076254,-2,-18,8,25,23,-17,8,0
6857076254,11,18,-6,-48,-27,4,-21,-1
6857083653,-4,10,4,13,-18,-34,-22,-9
6857083653,0,1,15,2,16,-1,-1,-1
6857099416,-12,1,-17,-49,-5,11,7,-1
6857099416,11,5,3,14,8,-4,0,0
6857100140,-14,2,-17,-8,-15,-12,-28,-9
6857100140,15,19,4,32,-35,-19,2,2
6857115161,-7,0,29,-19,72,25,3,4
6857115161,2,24,-25,-17,1,-3,7,-2
6857121255,11,17,11,28,-18,-16,-12,5
6857121255,-18,-7,-11,-45,-15,4,3,-11
6857136178,-6,0,27,50,7,-2,0,-5
6857136178,7,-3,0,4,-6,-3,0,3
6857143786,-12,-12,-16,-27,-9,-3,-5,-3
6857143786,4,10,8,6,-1,-19,2,3
6857159436,-3,-2,2,9,4,16,0,-2
6857159436,-5,-24,-13,-8,-1,14,0,-3
6857160146,10,1,-1,-1,-8,-7,-17,-4
6857160146,-23,-17,-11,-8,15,-3,4,1
6857175159,-16,-5,-6,-6,-25,-32,0,-8
6857175159,13,-4,-5,9,1,2,-41,5
6857181259,-7,-19,4,-2,1,-5,3,-7
6857181259,6,-6,-10,-5,6,12,-12,-6
6857196298,-1,-6,-5,-5,-12,-23,11,4
6857196298,5,3,9,6,-9,-4,4,-7
6857203814,19,11,-6,-4,5,7,-26,4
6857203814,1,4,0,-7,3,-26,5,9
6857219397,-23,-22,-8,7,-7,24,-6,-10
6857219397,12,3,-2,-5,-2,-8,3,-2
6857220090,-3,-3,1,0,4,8,10,-2
6857220090,-2,-20,-4,-3,0,5,11,-3
6857235097,10,-6,5,5,-4,-1,-16,-1
6857235097,-10,3,-5,-8,-5,0,7,1
6857241277,-5,-4,-5,0,2,-8,0,-2
6857241277,1,9,-4,-7,-4,4,-6,0
6857256235,2,-17,-4,3,-2,-1,-3,1
6857256235,-3,2,22,9,1,-5,6,-4
6857263730,-4,-9,-26,-18,-6,-2,2,-2
6857263730,-10,-5,-4,6,7,10,3,-6
6857279432,7,11,5,-10,-4,2,-4,5
6857279432,3,3,-6,0,0,-2,11,4
6857280103,-11,34,15,6,5,3,-5,-5
6857280103,3,-22,-27,-12,-2,3,-3,-2
6857295108,2,39,-1,-8,-5,-6,-5,-6
6857295108,1,4,11,13,5,0,4,1
6857301241,10,18,5,1,3,6,8,8
6857301241,1,-3,10,2,-2,-2,6,-1
6857316245,-12,-8,-7,14,11,10,2,4
6857316245,13,-27,-4,-7,-9,-6,-3,0
6857323743,-17,-48,-11,-1,-4,-2,1,-3
6857323743,-3,60,14,5,10,8,11,3
6857339430,1,-15,-11,-14,-19,-32,-40,-11
6857339430,-8,49,17,12,6,18,10,-5
6857340116,-2,-35,-11,-10,4,-1,-6,-8
6857340116,-8,9,0,6,0,-4,9,7
6857355139,7,21,8,12,4,1,12,7
6857355139,-13,-6,-7,-19,-15,-11,-11,-4
6857361196,0,8,20,-3,-5,-1,12,3
6857361196,24,9,-10,6,14,8,-9,-2
6857376252,-21,6,-3,1,0,1,12,-5
6857376252,5,14,-12,-9,-18,-13,-6,2
6857383736,-12,49,8,-3,-8,-5,-10,-7
6857383736,2,13,-2,-3,8,-7,24,2
6857399457,8,8,1,0,-7,23,0,6
6857399457,11,4,-9,-11,13,2,-7,-4
6857400103,-6,-6,0,25,28,-17,34,5
6857400103,-5,-48,-3,0,-24,15,-12,-6
6857415121,-2,-28,-5,2,27,14,10,4
6857415121,-7,-28,4,10,10,-5,4,-1
6857421180,16,-24,-3,-9,-5,-3,-10,-3
6857421180,-18,-30,-13,-8,-14,-17,-15,0
6857436241,-1,-20,3,2,-33,-11,-1,-2
6857436241,2,-22,-1,-5,23,5,5,3
6857443751,-15,-11,-17,-4,2,14,2,1
6857443751,15,-1,2,-2,8,-4,7,1
6857459398,-5,11,16,35,1,4,-14,0
6857459398,-14,-20,-26,-27,-8,-3,-2,-4
6857460120,6,12,6,-3,-7,-3,-15,0
6857460120,8,9,0,-2,3,3,6,4
6857475121,2,3,-1,-3,1,-12,-15,-5
6857475121,4,5,0,2,-13,-5,22,5
6857481312,1,18,15,14,12,11,8,-1
6857481312,2,4,0,-2,2,8,-6,-1
6857496288,-5,-6,-4,-5,10,-2,4,-7
6857496288,-12,-13,-11,-5,-11,-6,-5,-4
6857503784,-4,-6,-2,-9,-18,-20,-11,-1
6857503784,2,-1,-1,10,6,11,-4,0
6857518684,9,3,-16,-21,-13,-12,-19,-5
6857518684,-7,-5,6,0,-2,11,14,-4
6857526217,7,-4,-6,5,14,9,1,7
6857526217,-5,-4,2,0,-5,-6,-12,-6
6857541810,-2,2,-3,-9,-3,-13,7,0
6857541810,-14,3,-2,0,-3,-11,-9,-5
6857542744,-2,-14,-11,-2,-7,20,2,-1
6857542744,3,-3,3,-7,-1,5,8,2
6857556237,9,5,1,-1,3,2,14,2
6857556237,1,4,5,9,-1,-12,-6,-6
6857563727,5,0,2,0,-6,-6,7,1
6857563727,-8,0,-4,-6,-4,-3,-18,-6
6857578746,-7,-6,0,-4,-2,-4,4,0
6857578746,2,3,4,7,4,11,-7,3
6857586280,-9,-7,-7,-6,-5,-11,5,-9
6857586280,-2,-5,-4,-4,-7,-10,-4,-6
6857601816,15,3,4,2,4,1,20,10
6857601816,-10,1,4,2,-1,-17,11,-1
6857602637,9,-2,-1,0,-2,25,-13,1
6857602637,-7,7,8,0,-1,-10,6,-2
6857616203,-3,-5,-5,3,4,3,-7,-2
6857616203,0,7,-3,-1,-2,4,1,-1
6857623781,11,6,-1,-3,-5,-10,-3,0
6857623781,-25,-5,-1,-4,-4,-1,-3,1
6857638732,-2,-3,1,1,1,1,-2,-4
6857638732,8,4,-3,0,1,5,-10,2
6857646217,-4,-1,1,-3,-1,-6,-8,-3
6857646217,0,-4,2,3,2,3,-3,-2
6857663332,5,6,-6,-4,0,4,-1,-1
6857663332,10,-9,0,-2,-3,2,2,2
6857665452,-9,-19,-3,5,-2,-4,-4,-4
6857665452,-12,5,5,-10,-7,-5,2,-2
6857678055,-6,-1,5,11,2,-3,-5,-1
6857678055,-1,-10,-13,-19,-17,-9,-8,-4
6857683791,-6,-2,-7,5,8,-2,-3,-4
6857683791,23,12,9,9,8,4,-1,1
6857698665,-13,-1,6,4,-2,-2,-3,-7
6857698665,9,10,-7,-30,-10,-1,-9,12
6857706168,-9,8,3,-6,-9,-8,-5,2
6857706168,8,-7,-13,0,11,11,7,4
6857715143,4,-2,2,1,11,0,4,1
6857715143,13,24,10,20,3,-3,-11,-1
6857721157,-18,-5,0,-10,-11,13,-30,-1
6857721157,6,0,6,4,-8,-15,8,-4
6857736106,1,-10,-11,-16,-15,-6,-4,-3
6857736106,1,-3,3,9,7,2,10,1
6857743545,3,6,2,-1,4,-10,0,2
6857743545,-11,-5,-2,-3,-3,-2,-15,-4
6857758704,-1,9,-4,-4,-5,6,0,1
6857758704,-10,-4,-1,2,2,-5,4,-3
6857766195,7,5,2,-5,-7,-8,6,-3
6857766195,3,7,0,-8,-9,-4,-4,-3
6857781846,9,-1,-1,0,4,6,9,3
6857781846,-18,0,-4,6,8,9,-5,-1
6857782735,12,-8,3,0,11,3,9,-1
6857782735,-27,-4,-2,2,1,-1,-6,-2
6857796128,-7,-6,3,-7,-2,1,-7,-4
6857796128,6,-1,0,-2,-11,-9,-2,-2
6857803732,-9,-6,-5,12,5,-3,-1,-4
6857803732,5,-11,-3,-4,-2,2,2,0
6857820166,16,1,-5,-8,-4,-3,-5,3
6857820166,-2,-2,-3,0,2,7,5,-1
6857826159,3,7,0,-5,-8,-9,4,-1
6857826159,-5,-11,-1,-4,-2,-2,-3,-2
6857841919,1,7,2,3,2,-7,-3,1
6857841919,-3,1,2,-3,-7,20,-5,-3
6857842603,-7,-4,0,4,7,-10,-2,-1
6857842603,3,2,-4,2,6,-1,-1,-1
6857856169,-6,-1,-3,0,1,10,5,2
6857856169,20,0,-4,-3,-7,-17,-5,-2
6857863687,-6,3,-4,-13,-19,-8,-6,-2
6857863687,-14,-7,2,9,13,19,8,-2
6857878740,-7,1,-3,-2,4,-7,20,4
6857878740,-4,-3,5,6,2,-3,-2,-1
6857886168,11,5,-1,-4,-4,3,1,2
6857886168,-1,-9,-6,-18,-21,-18,-8,-5
6857901843,0,-6,0,1,-8,1,-7,-4
6857901843,2,3,3,14,15,7,-3,2
6857902544,-3,1,1,5,1,4,13,2
6857902544,23,4,-1,-1,4,-2,-2,4
6857916221,-27,0,-1,-9,-6,-8,-6,-7
6857916221,-4,-7,-1,-4,-12,-2,-2,-3
6857923715,-4,1,-3,-5,-5,-7,0,-1
6857923715,6,-1,-2,1,10,22,-7,3
6857938721,7,5,0,7,16,-2,8,1
6857938721,-7,-9,-2,3,1,1,-2,0
6857946283,-4,0,-1,-4,-2,2,4,-2
6857946283,14,14,-1,-7,-18,-15,0,5
6857961691,-2,-7,-6,-8,-7,-2,-17,-5
6857961691,6,2,0,-2,-2,-3,1,3
6857962685,-17,0,2,4,3,-1,-10,-8
6857962685,1,-1,-9,-5,5,4,19,4
6857976124,3,1,1,2,-3,-1,-1,-2
6857976124,-3,0,-3,-1,4,-2,0,-3
6857983650,8,0,-1,-2,4,3,0,2
6857983650,4,-2,0,7,-1,-3,-3,-4
6857998645,5,2,-4,-5,-9,-4,-5,0
6857998645,-8,3,5,5,-1,-4,4,-3
6858006230,-11,-7,-7,1,13,6,8,0
6858006230,-7,-8,-3,-2,-4,0,-10,-4
6858021841,4,-5,-6,-2,1,-1,-4,1
6858021841,2,1,0,-6,-13,-8,-14,-1
6858022671,-1,-5,-6,-13,-14,-13,-4,-5
6858022671,6,7,6,20,28,16,2,2
6858036101,-3,-7,-4,0,-3,0,-1,0
6858036101,-10,-9,-2,-3,-1,1,5,-2
6858043585,3,2,-4,-5,2,3,-3,2
6858043585,-2,1,4,-5,-21,-17,-2,1
6858068991,3,-9,-8,-8,-1,0,-9,-4
6858068991,-2,0,2,-3,-7,-9,1,2
6858069755,9,0,-4,-11,-20,-1,-3,-3
6858069755,-10,16,3,9,25,8,1,3
6858081881,-8,-7,5,12,12,11,8,-4
6858081881,0,-2,-5,0,3,8,1,-1
6858082650,2,-3,-1,-1,-5,-6,-4,0
6858082650,11,3,-4,-11,-14,-10,0,-5
6858096202,1,5,0,-1,-2,-2,-27,4
6858096202,2,4,-4,-5,0,-7,1,-1
6858103700,-7,-21,-8,-15,-16,-6,-10,-6
6858103700,-13,-3,7,22,18,8,9,-4
6858118689,-2,-5,6,15,12,9,1,-1
6858118689,6,1,-5,-6,-1,1,-5,0
6858126781,2,0,3,10,7,9,8,5
6858126781,-5,-8,-10,-23,-17,-16,-9,-3
6858141843,-2,2,0,-2,-5,-6,5,-2
6858141843,-6,-3,0,3,2,-2,-2,-5
6858142632,2,4,2,1,0,-1,2,5
6858142632,6,-7,-8,-7,-8,-9,5,-1
6858156163,4,2,3,2,7,12,-6,0
6858156163,-3,-2,0,7,9,1,0,-3
6858163736,4,7,3,4,8,2,4,0
6858163736,-11,-7,-7,-10,-14,-5,-8,-2
6858178643,21,1,2,-6,-9,-3,13,2
6858178643,-35,-8,-1,0,-8,4,-2,-3
6858186910,3,3,1,2,3,-6,-7,-3
6858186910,8,1,-3,-1,-5,2,-8,-1
6858201889,-10,-7,-3,-4,-1,0,7,-3
6858201889,1,4,-1,-1,1,-2,-1,0
6858202575,-7,0,1,5,-1,-5,-6,0
6858202575,5,-4,-2,-11,-3,-10,2,-1
6858216094,5,10,1,3,-8,4,-3,1
6858216094,-10,-18,-4,4,16,5,8,-2
6858223661,2,2,0,1,-10,8,-11,1
6858223661,2,0,0,1,1,-8,-3,-3
6858238709,2,7,-4,-12,-6,-12,1,0
6858238709,6,3,2,-2,-6,-7,6,-1
6858246871,-5,-4,3,1,6,15,-12,-5
6858246871,3,3,0,1,-4,-1,18,2
