timestamp,emg1,emg2,emg3,emg4,emg5,emg6,emg7,emg8
6979768090,-1,8,-2,0,-3,-4,2,1
6979768090,5,-3,1,0,2,-3,0,-1
6979768935,-15,-11,-4,-2,-2,2,-2,-2
6979768935,-2,8,1,2,0,-2,-7,-1
6979772390,10,-4,0,1,-2,1,8,2
6979772390,1,-5,-1,2,0,-1,-1,-1
6979773164,-3,-1,-5,1,-3,-3,-5,1
6979773164,-7,-6,-3,-12,1,2,4,-5
6979779567,-1,-5,-3,1,3,-2,-5,1
6979779567,4,0,-1,-6,-6,-1,0,1
6979787563,8,11,5,0,-7,-4,-3,-3
6979787563,-4,-4,-5,1,8,4,-1,1
6979793871,-17,-9,1,-3,2,5,2,-4
6979793871,5,8,-1,-4,2,0,-1,1
6979808909,4,0,-1,0,1,-2,-1,1
6979808909,2,-13,3,11,-9,-4,-1,-1
6979817567,-5,2,-4,-8,-6,-5,-4,-3
6979817567,-5,4,5,6,0,3,6,-1
6979831758,-4,-1,7,-3,3,2,0,-3
6979831758,3,2,4,2,-4,-8,-4,-3
6979839659,1,-1,-5,0,2,-2,-1,-3
6979839659,-11,-4,-3,-1,-4,-4,-1,1
6979887107,-4,-7,-9,-9,-2,-10,-4,-8
6979887107,-4,-5,4,3,2,1,-5,-1
6979888059,2,1,0,4,5,1,10,-9
6979888059,2,1,3,2,-2,-2,-31,1
6979888676,18,9,6,4,0,3,4,3
6979888676,-12,-11,2,1,1,1,12,4
6979891219,-30,-5,-3,-6,-4,4,1,-4
6979891219,-4,5,-3,-4,-3,-13,-10,-5
6979899110,2,-3,4,2,-1,-5,12,-8
6979899110,24,26,3,2,2,-5,-20,5
6979914380,4,0,-5,-3,-1,12,-26,4
6979914380,3,-8,-1,-1,-1,-1,29,-1
6979915044,-3,4,-2,1,2,0,-8,-3
6979915044,0,9,-2,-3,-3,7,20,10
6979928744,-2,-15,3,0,0,-10,3,-3
6979928744,-6,-14,-2,-3,-3,-7,-1,-3
6979936195,-1,7,-2,3,3,-33,-11,-7
6979936195,-5,-4,-7,-7,-7,52,24,-11
6979945065,10,-6,-2,-4,-4,-17,-1,5
6979945065,-6,9,-6,-4,-2,13,8,1
6979959403,-6,4,5,6,6,9,1,1
6979959403,-16,-11,-2,-1,-4,-20,-14,-6
6979966167,-4,5,-2,-2,-4,-1,-5,-5
6979966167,14,2,-10,-7,-2,8,3,2
6979973770,10,-14,9,2,-5,3,-6,9
6979973770,-12,48,8,-9,-3,-12,-9,-2
6979988597,1,4,-3,38,17,13,6,-5
6979988597,-1,-12,-14,-5,-11,-16,-6,-1
6979996184,0,-16,22,26,-7,8,1,3
6979996184,-1,-14,-29,-24,11,-2,-4,-2
6980005066,-10,-17,5,-25,-8,-7,-2,-3
6980005066,-12,-39,6,1,-11,3,-7,-2
6980019214,5,8,-19,-3,12,0,0,1
6980019214,-13,-68,20,53,14,6,5,-5
6980026046,9,13,3,16,-11,-14,-8,-3
6980026046,21,56,-6,1,5,14,4,2
6980033521,-9,-12,2,-42,-8,3,-5,2
6980033521,-9,17,-17,-35,-19,-12,-5,-2
6980048528,-1,22,-14,7,27,13,9,4
6980048528,-4,21,17,12,-15,-21,-24,-8
6980056038,-12,34,-8,-9,-21,0,27,-3
6980056038,10,50,17,10,9,4,-1,-3
6980065093,-13,-10,-9,-18,-16,-14,-26,6
6980065093,-1,7,-1,-10,14,7,9,-7
6980079248,6,27,0,2,4,0,-8,-6
6980079248,14,13,-6,-16,-26,-8,1,16
6980086018,6,-13,11,-1,-21,-1,7,-5
6980086018,-3,-1,7,16,30,-12,-4,-1
6980093554,-1,-6,-18,-16,4,28,5,0
6980093554,12,-19,6,16,1,-6,-2,-6
6980108576,-14,-29,-2,-3,-12,-14,-16,0
6980108576,-2,22,9,14,18,9,7,1
6980116049,-18,-24,-4,1,18,-5,5,-4
6980116049,1,-43,0,22,-6,7,21,4
6980125066,14,15,-1,-16,3,-9,3,-4
6980125066,-17,-34,-15,-56,-27,-2,-8,-2
6980139249,4,-41,-21,47,-19,2,2,0
6980139249,6,-16,-11,-19,33,6,-3,1
6980146059,7,9,7,-15,-22,2,17,4
6980146059,0,-35,-10,2,18,1,4,-3
6980153548,-6,-10,-7,-31,-14,-1,-6,-2
6980153548,-17,-10,-5,1,-13,-8,-13,-10
6980168589,-2,-2,-7,22,-2,-2,-10,-6
6980168589,7,6,2,-23,-6,5,3,4
6980176048,-5,20,14,13,5,-3,-15,-1
6980176048,-1,-3,-3,-1,2,-3,7,-3
6980192546,-1,12,21,-21,-2,-3,-7,-1
6980192546,-6,-5,-2,11,-10,4,1,-3
6980199193,7,19,4,-1,1,-13,0,2
6980199193,2,6,5,4,1,-5,-3,1
6980206068,10,12,2,13,16,23,-21,5
6980206068,-5,3,10,7,-6,-4,-2,-6
6980213529,-3,-5,-5,-3,1,-8,3,5
6980213529,-2,-7,-10,-11,-8,-5,-2,-8
6980228562,3,17,2,2,0,0,16,0
6980228562,0,-1,0,7,4,-9,-23,5
6980236052,5,-23,-3,-11,2,12,-8,0
6980236052,-5,2,-8,-2,0,-21,-16,1
6980251003,-11,-15,-9,1,10,17,24,0
6980251003,1,-5,-3,-4,-13,-14,-13,-7
6980259239,-7,10,1,-4,-5,2,-28,-8
6980259239,5,4,7,3,0,4,15,6
6980266025,3,2,-5,-2,6,5,2,-2
6980266025,1,6,-4,6,1,4,-3,2
6980273521,-5,-15,2,0,-4,-14,28,-1
6980273521,2,-9,4,2,3,10,-21,3
6980288660,-1,-20,-8,-6,-4,-8,-5,-2
6980288660,1,-21,-2,-1,-6,-1,14,1
6980296196,0,-4,-2,-1,4,-1,-14,-3
6980296196,-3,10,4,-2,-1,1,-6,-3
6980311233,1,-10,-6,-7,-3,-6,10,0
6980311233,6,8,4,9,-1,-2,26,7
6980319383,-10,-7,-2,-1,1,9,-16,-4
6980319383,17,3,-3,-5,-4,-6,-2,0
6980326149,-4,-15,-1,1,2,-5,-9,-5
6980326149,-9,-2,5,3,-4,1,0,-3
6980333735,-13,9,-12,-11,0,-2,0,-4
6980333735,-8,-3,-6,-11,-5,0,7,-2
6980348657,2,17,4,6,2,-6,5,-4
6980348657,-3,-27,2,-1,-11,0,-6,2
6980356187,12,28,-15,16,15,1,11,7
6980356187,0,-4,7,5,-11,-2,-7,-5
6980371163,0,-13,-1,-5,8,0,-6,1
6980371163,34,103,31,14,4,5,4,10
6980379378,-21,-97,-59,-27,-8,-2,-11,-10
6980379378,-42,15,4,-5,7,1,3,-5
6980386236,-16,-47,-1,5,1,5,0,1
6980386236,7,-36,7,-10,-1,-1,15,-3
6980393703,-6,64,23,-17,-13,-5,23,6
6980393703,20,10,8,50,12,1,-5,1
6980408627,-16,-49,-24,-33,-13,-12,-2,3
6980408627,24,-22,9,0,1,6,7,-1
6980416178,-12,-73,-24,-23,-6,-6,-12,-3
6980416178,11,42,-9,-11,-7,-1,-5,-8
6980431180,6,8,9,4,-2,2,9,7
6980431180,-27,67,30,25,-23,-13,-12,-6
6980439362,11,61,-26,5,21,10,13,3
6980439362,-11,-49,-3,-9,6,7,9,2
6980446227,21,31,2,11,7,-3,-14,-3
6980446227,-16,-33,-19,-3,-9,-1,7,1
6980453654,8,20,37,1,-11,-6,-6,-1
6980453654,12,10,-2,-30,-5,-6,-1,-1
6980468658,1,25,1,19,6,5,3,-2
6980468658,-9,-8,-21,-10,7,-3,-10,-11
6980476220,7,23,31,18,10,9,8,8
6980476220,7,-20,-10,11,0,-9,-2,2
6980491160,0,19,2,-12,-11,-10,-4,-5
6980491160,-17,-7,-11,1,-7,-7,-2,-3
6980499367,10,-13,7,56,10,17,3,1
6980499367,-3,-26,-24,-59,-8,-9,-3,-3
6980506162,-9,-1,3,8,13,9,14,-2
6980506162,3,-9,-1,0,14,5,-13,2
6980521850,14,0,-16,-30,-37,-15,2,1
6980521850,-7,-9,-4,11,-9,-5,-9,0
6980528650,4,22,6,36,-2,2,-1,-3
6980528650,-8,-22,-17,-23,3,-3,-9,-7
6980536106,0,-5,8,6,1,-1,6,-2
6980536106,4,26,12,14,-7,-2,9,5
6980551114,-8,0,3,-25,-19,-23,-18,-6
6980551114,2,-10,-22,-12,9,20,8,-1
6980559380,5,7,-7,-1,1,-8,14,3
6980559380,-5,17,-3,-2,-3,-1,-14,-6
6980566225,7,6,-1,8,6,10,26,8
6980566225,1,3,-5,-6,4,9,-11,-1
6980581783,0,8,14,9,2,-1,10,1
6980581783,-8,4,-8,-8,-1,0,-5,-3
6980588685,-4,-20,-12,-15,-1,4,14,-2
6980588685,4,2,-3,0,2,-10,15,4
6980596225,5,4,9,-7,-3,4,-14,-3
6980596225,-10,-5,5,5,-9,-13,3,-12
6980611186,-6,4,-2,-4,-1,-5,-46,3
6980611186,-4,-3,-8,-1,-2,-16,-23,-5
6980619278,2,-13,6,4,10,11,27,1
6980619278,4,-5,14,9,10,19,-16,5
6980626211,-3,0,-6,-8,-5,3,10,1
6980626211,-3,-8,2,3,-4,-11,-7,1
6980641836,-19,-3,4,-4,-4,-9,-7,-15
6980641836,0,-13,-6,-3,0,1,8,2
6980648642,10,-3,1,-3,-1,2,-1,0
6980648642,7,8,0,4,1,-1,-6,4
6980656158,-1,-5,2,-1,0,-5,10,-2
6980656158,-6,-8,-1,4,1,11,15,-1
6980671166,-5,1,4,-2,-3,-6,-14,-3
6980671166,-7,-6,-3,-1,-1,9,-1,-4
6980679343,1,-11,3,-6,-3,-19,-34,-1
6980679343,7,-4,0,3,4,-1,11,0
6980686037,5,-6,0,0,-5,2,7,3
6980686037,-21,13,-1,-3,-4,-1,1,-11
6980701739,-6,-43,-11,-10,1,3,-30,2
6980701739,10,7,2,4,0,-3,-11,6
6980708685,-6,-2,3,3,8,5,9,-5
6980708685,12,-6,3,10,6,4,15,3
6980716207,-7,17,6,-4,-7,2,2,-1
6980716207,-1,11,-4,5,6,-2,-4,-2
6980731141,-11,-5,-8,-3,-2,-4,2,4
6980731141,2,2,-2,-11,-10,-4,-6,-1
6980747392,12,19,3,4,5,7,3,7
6980747392,8,8,13,6,-1,-1,-8,-4
6980748968,-10,8,-12,-11,-2,-8,-6,-7
6980748968,-7,-34,-15,-10,-2,-1,-17,-10
6980761693,9,39,4,13,4,-4,2,4
6980761693,-23,3,5,-19,-29,-20,-1,-13
6980768643,36,66,-17,-5,1,5,-2,12
6980768643,-71,-89,-47,-43,-4,-9,-5,-19
6980776152,-1,16,14,1,10,6,4,-4
6980776152,23,-5,45,70,6,6,-6,6
6980791153,-18,92,-19,14,18,1,-11,-3
6980791153,7,-46,-18,-50,0,-2,16,5
6980799313,-7,49,11,-61,-20,-4,2,-5
6980799313,-2,-6,-47,-38,7,-2,-9,0
6980806061,17,17,61,58,-10,11,24,1
6980806061,6,1,-17,28,18,-4,-8,2
6980821656,-21,-36,1,9,14,5,2,2
6980821656,17,29,6,-31,-7,6,4,0
6980828628,5,-1,0,-2,-10,-19,-20,-6
6980828628,4,59,20,12,-17,0,3,4
6980836126,-8,-9,-13,3,-8,-6,-17,-8
6980836126,-5,15,-1,8,5,1,-29,-3
6980851132,-7,-45,-33,-42,-6,-8,12,0
6980851132,6,-20,22,8,-24,-1,2,-4
6980859275,-12,-62,-14,7,31,-7,-1,-3
6980859275,-5,-29,2,42,-17,6,3,-1
6980873557,-5,-48,-5,-56,7,-11,-30,0
6980873557,21,39,3,28,2,14,14,5
6980881861,2,7,-5,8,7,0,-1,-4
6980881861,-6,-17,-14,-28,14,4,15,3
6980896837,-14,-37,-1,-1,-20,13,2,-6
6980896837,15,29,12,11,9,-19,2,2
6980897553,7,-12,-7,17,-17,4,4,5
6980897553,-14,-8,-1,5,3,3,13,-3
6980911143,5,9,-3,1,0,-8,-6,-6
6980911143,-3,12,6,-21,-9,-3,17,6
6980919348,4,-5,-11,0,-16,-5,10,-3
6980919348,6,12,-4,-16,-4,11,-21,4
6980933577,-15,-3,8,11,8,6,5,-8
6980933577,-8,1,-1,6,8,12,-7,0
6980941645,5,1,2,-2,-3,-6,-3,8
6980941645,-5,0,-13,-15,-10,-21,11,-2
6980956724,13,-5,1,5,6,18,1,1
6980956724,-1,18,8,12,3,-7,14,0
6980957584,2,10,3,3,0,-2,-2,-6
6980957584,-6,-9,-9,-12,1,-10,-10,1
6980971139,-3,-13,-5,4,-6,-4,7,0
6980971139,-1,7,10,3,-1,-6,-20,-2
6980979228,5,8,-7,-4,2,-1,-2,-7
6980979228,-5,-3,2,2,2,10,23,3
6980993579,-1,-4,-2,-1,-3,-8,-4,0
6980993579,8,7,-1,-4,0,5,1,4
6981001719,-7,-5,3,6,-6,-2,-9,0
6981001719,-1,-1,-3,0,2,-5,-9,-4
6981016157,-4,-8,-1,-7,-1,-4,3,-2
6981016157,9,-2,1,13,7,-3,-1,-1
6981025039,-18,-10,-2,-6,-4,4,-4,2
6981025039,-1,-2,-4,-2,0,-4,10,-4
6981031177,-6,-10,9,6,0,4,1,2
6981031177,0,-17,-13,-17,-3,-6,9,-2
6981039991,1,-8,1,-6,-1,2,-32,3
6981039991,-5,-1,4,1,-4,-1,-2,-3
6981053657,8,-9,-8,2,1,-7,4,0
6981053657,1,8,0,-3,-7,6,-6,4
6981062477,0,-4,9,12,9,-4,5,-5
6981062477,-6,-8,-15,-11,-2,-12,-1,-3
6981076161,10,14,20,-2,-3,12,-28,-2
6981076161,-8,2,-26,0,-3,-1,-13,0
6981085064,1,-2,-1,-4,-7,-1,1,-5
6981085064,3,10,2,-4,-1,-4,-2,-3
6981091079,-10,1,0,14,1,-5,8,-2
6981091079,-5,-4,3,6,7,5,-3,-1
6981100009,7,7,1,-2,-9,-7,-3,-1
6981100009,4,5,5,-4,-8,2,2,3
6981113648,7,-5,-21,-2,4,-1,-2,0
6981113648,-2,-3,-1,-11,1,6,10,-2
6981122494,0,2,7,30,2,0,1,0
6981122494,-3,2,1,0,-2,0,-2,-4
6981136115,1,16,8,-15,-8,-9,1,1
6981136115,-11,9,14,9,-5,1,-5,-5
6981145040,-4,-6,-29,-38,-4,-1,1,-4
6981145040,15,9,20,14,1,2,-1,1
6981151140,-26,-19,-14,-7,-2,1,1,0
6981151140,9,-1,13,17,0,-3,-3,-2
6981159973,-2,-3,-10,-31,-8,0,-2,0
6981159973,-12,9,7,-3,1,2,-1,-3
6981173576,10,-14,-10,-3,-8,-1,5,2
6981173576,4,33,-9,-11,1,4,0,-1
6981182561,2,16,-5,-19,-17,-9,-8,-4
6981182561,7,0,-2,21,18,7,17,4
6981196068,-24,7,5,-19,-10,-6,2,-7
6981196068,4,-10,10,40,10,-2,-6,0
6981205020,-7,-17,-7,-9,-3,-2,-25,1
6981205020,2,10,-5,-23,-11,0,-2,-2
6981211137,-4,-19,-3,21,16,-2,0,-4
6981211137,-5,-15,8,4,-4,-4,3,1
6981220030,10,-17,0,2,24,8,7,4
6981220030,3,-13,-6,-18,-10,-2,-2,-3
6981233632,2,7,-20,-5,7,-3,-3,2
6981233632,-6,-24,-6,-12,-4,-5,-8,-3
6981242543,-3,6,18,34,-4,-8,5,0
6981242543,-1,-6,-10,14,18,13,2,0
6981256128,36,34,17,27,6,-8,-8,11
6981256128,-1,-1,-6,-34,-4,-2,-3,-4
6981271807,-16,-2,-4,2,-15,-10,21,-1
6981271807,-6,-1,10,38,-2,-8,-7,-5
6981272502,-5,-19,5,-13,3,6,1,-5
6981272502,11,12,-6,12,3,-3,7,5
6981280018,-5,1,7,-21,3,0,-4,-4
6981280018,7,14,-4,5,-5,-3,-3,1
6981293648,7,12,7,3,-1,0,12,-3
6981293648,-9,3,6,-14,-16,1,-38,0
6981302549,4,12,3,17,9,2,7,-2
6981302549,-11,-21,-12,-8,-4,-9,3,-7
6981316100,3,-2,-7,-4,1,6,-12,6
6981316100,4,1,2,3,5,1,20,0
6981325015,3,7,-9,1,-10,-3,-21,-7
6981325015,3,2,8,-3,10,12,36,13
6981339916,-4,-5,5,1,-2,2,5,-5
6981339916,4,-2,-2,10,9,-7,8,5
6981341463,1,14,-2,2,6,26,0,-5
6981341463,-8,0,-9,-13,-10,-16,3,-11
6981353636,-6,-6,-6,-7,-7,3,29,6
6981353636,13,20,9,11,12,11,4,8
6981362497,-6,-1,3,1,0,-16,-1,0
6981362497,-3,-20,-4,-8,-1,-2,-2,-1
6981376127,-10,-13,-1,1,-1,-7,-4,-5
6981376127,9,-11,0,-7,-4,21,14,1
6981384993,2,-16,8,4,3,7,9,-2
6981384993,-6,-9,-3,-4,-3,1,-41,4
6981400021,-4,-13,-2,0,-1,-10,4,-8
6981400021,-5,-12,-7,-10,-10,-14,-8,-8
6981401506,4,2,-2,-1,-2,-7,-7,1
6981401506,-8,4,-4,-1,0,-1,9,-1
6981413587,-10,-3,-4,-7,-9,-2,-10,-3
6981413587,-5,-17,-5,-4,-5,-4,-12,-3
6981422522,6,-6,-2,3,3,3,8,1
6981422522,1,-7,3,-6,-5,-32,-13,-1
6981436117,2,-9,3,2,0,35,0,0
6981436117,-10,5,0,-5,-3,-5,4,-4
6981445033,1,9,2,4,0,-7,-2,0
6981445033,13,3,-2,-4,-2,4,-4,5
6981460008,-3,11,-6,-11,-2,-17,-15,-5
6981460008,-8,16,-4,4,-3,9,34,2
6981461505,17,48,5,-3,-1,0,-1,2
6981461505,-24,-68,-8,-6,-11,-2,-4,2
6981473663,4,58,9,23,14,7,0,-2
6981473663,-8,3,-22,-18,-12,-5,-4,-5
6981482525,16,52,30,-3,0,-6,1,10
6981482525,-14,33,-4,16,2,17,18,-2
6981496133,-38,-52,-7,13,-2,-17,-11,-7
6981496133,15,-77,4,-6,16,1,-8,-8
6981504971,19,75,6,-13,3,3,10,11
6981504971,-8,-40,1,36,-3,-5,-15,-6
6981511097,-2,47,-26,-24,-3,1,6,-2
6981511097,6,19,61,39,-14,-6,-15,-1
6981519995,-16,-55,-54,-52,13,-2,-6,-6
6981519995,51,23,26,-26,-19,5,-12,2
6981533612,-12,7,-25,-25,-11,-7,2,-3
6981533612,3,2,-5,40,5,4,13,6
6981542513,-16,-25,-15,-18,4,6,3,-4
6981542513,30,37,-14,-22,-12,-17,-11,0
6981556165,-8,-37,13,27,5,13,16,3
6981556165,-1,31,3,-9,-9,-10,-8,-1
6981565048,-20,-54,-11,-6,-22,-11,-10,-10
6981565048,-12,3,6,31,27,16,23,-6
6981571051,32,-7,-4,-31,1,-5,-30,11
6981571051,-17,21,-4,5,14,-15,-12,-6
6981579970,-18,20,14,-16,-18,17,27,-7
6981579970,-6,8,-13,6,-9,-8,-9,-4
6981593555,21,-1,13,-11,-20,-17,1,2
6981593555,-10,2,1,27,40,35,2,-2
6981602463,-2,-44,5,12,4,13,-6,-3
6981602463,7,-13,9,13,17,9,5,5
6981616138,-7,-22,-2,-9,2,-6,5,-6
6981616138,3,-10,-16,-10,3,-6,-2,-1
6981625014,9,-1,4,21,-12,-16,-13,-3
6981625014,-14,-13,5,-7,1,13,34,4
6981639922,5,24,-16,-10,-11,-17,-13,-11
6981639922,-8,-7,-3,-44,-22,-12,30,-4
6981641475,-3,-10,10,21,11,1,-4,2
6981641475,-15,5,-22,-23,-6,-27,-28,-9
6981653550,8,0,8,4,-4,7,12,-2
6981653550,-1,6,-7,-11,-10,-4,-9,-6
6981662530,-8,-18,2,29,0,1,-10,-4
6981662530,0,14,5,-5,0,-9,-2,-1
6981676162,1,-6,1,10,5,5,12,6
6981676162,-4,-4,1,-13,-5,5,-18,-6
6981685013,-11,-23,-11,-6,-5,-8,-1,-1
6981685013,-13,-10,4,-20,-2,-1,-14,-5
6981699913,8,6,-4,16,8,0,-9,0
6981699913,-12,-2,-11,-5,-5,1,-7,3
6981701452,2,0,5,-1,-3,-10,-5,0
6981701452,-2,2,2,-4,-4,8,-1,-1
6981713604,-4,-7,3,8,8,13,20,3
6981713604,8,8,-7,-8,-3,-12,2,2
6981722472,3,-4,-17,-6,-3,3,2,-4
6981722472,2,12,1,-4,-5,-15,-17,4
6981736074,-5,0,15,9,0,11,-15,-1
6981736074,4,-1,3,3,2,10,0,3
6981745057,10,8,3,2,-3,1,8,3
6981745057,-4,0,-11,-4,4,-8,-4,-3
6981760090,-5,-10,9,-4,-6,-1,-4,-4
6981760090,14,-9,0,-5,-4,1,-18,10
6981761474,-5,-9,3,14,0,-6,-13,-4
6981761474,4,-15,-10,-16,-2,0,3,-1
6981773662,-1,-2,-4,3,-1,-5,5,4
6981773662,-12,-7,-1,13,-2,4,9,-5
6981782514,7,3,-3,0,4,-10,-18,-1
6981782514,-6,7,-4,-11,1,16,19,-1
6981796132,3,2,7,4,3,-2,0,0
6981796132,2,-3,-13,-10,-4,-6,-7,-2
6981804969,1,3,-9,-10,-3,0,-2,0
6981804969,-1,9,2,2,0,1,1,-1
6981820013,-8,-6,3,-3,-7,-3,-8,-2
6981820013,0,2,1,13,-2,-11,-3,-5
6981821463,6,4,-10,-14,-7,-5,-14,3
6981821463,-5,-1,6,1,8,19,8,2
6981833636,-14,-9,0,9,9,-1,-5,-2
6981833636,7,6,-5,-5,-1,0,-1,1
6981842455,-9,-1,2,5,2,6,8,-3
6981842455,8,6,8,14,-7,-7,-12,1
6981856744,0,0,-4,-2,-2,-7,-13,-3
6981856744,3,0,-20,-22,-2,-1,5,1
6981863602,-2,4,26,8,-8,-5,4,0
6981863602,-6,23,-27,-22,6,-1,-2,-4
6981880020,4,-5,0,-2,-2,-1,4,4
6981880020,-8,-23,-11,1,0,0,-1,-1
6981881492,10,-10,6,10,1,2,7,5
6981881492,0,23,24,44,-3,3,-4,2
6981893520,-14,-19,-25,-53,-4,-6,-6,-8
6981893520,-5,16,6,4,-3,-2,-2,-5
6981902516,-7,-1,-10,-3,7,4,9,1
6981902516,7,-34,-5,-1,-2,0,5,-1
6981916763,8,34,5,0,-2,2,-4,-2
6981916763,5,-14,8,-6,-12,-5,-1,4
6981923610,-4,22,-3,0,3,-3,-1,0
6981923610,0,19,5,-9,-3,-2,-4,-5
6981939934,-6,-6,-4,9,0,2,7,4
6981939934,0,14,1,-18,0,-1,-3,-3
6981941477,1,-22,-6,16,-3,4,-2,-4
6981941477,6,-17,-5,-10,-10,-12,-9,3
6981953630,-14,-7,-3,4,-1,3,1,-3
6981953630,-13,-21,-11,-8,8,1,-3,-9
6981962473,4,2,0,-7,-6,-7,6,6
6981962473,12,-2,5,-12,-9,0,-8,2
6981976800,-1,-19,-1,5,0,-9,4,-6
6981976800,14,20,10,21,11,2,33,10
6981983588,-7,-7,-7,-12,-7,5,4,-7
6981983588,0,-3,3,22,14,-9,-6,-3
6981999853,7,3,4,-7,-7,4,0,1
6981999853,-1,-1,5,12,-7,3,-7,-2
6982001456,-5,-1,-4,-29,9,6,4,-1
6982001456,1,2,7,22,10,5,9,2
6982013588,-18,-22,18,4,-1,-1,-8,-7
6982013588,2,8,14,10,-7,-2,-4,1
6982022492,-4,-18,-25,-9,5,1,-5,-3
6982022492,-6,-1,-12,-15,-8,-4,-6,-6
6982036810,5,17,-17,-3,-1,-1,-1,4
6982036810,1,-8,11,10,-7,-4,-10,0
6982043627,-14,-15,-9,-15,-15,-14,-8,-11
6982043627,7,-2,1,1,8,8,7,6
6982059885,5,1,-11,7,-4,-7,-1,-3
6982059885,-13,1,-11,-14,5,7,-32,3
6982061493,16,32,17,18,-2,-8,-1,1
6982061493,-17,-12,-9,-11,-3,-6,-8,-7
6982073644,14,15,4,2,-2,-10,13,6
6982073644,2,7,-7,-3,7,6,-18,-4
6982082457,6,20,12,19,9,11,9,6
6982082457,-7,-11,-10,-7,-7,-1,0,-4
6982096533,5,6,-3,-8,-3,-9,-16,-1
6982096533,-2,-14,-5,-5,1,-5,16,-7
6982104974,7,7,0,4,-3,1,16,12
6982104974,-11,6,6,1,7,20,16,-6
6982119906,-2,-3,0,7,5,-8,-28,4
6982119906,3,-3,-4,0,-4,2,-5,1
6982121443,-4,-6,11,4,2,0,-5,-3
6982121443,1,-11,-6,-5,-3,7,-7,0
6982133664,-5,-18,2,-3,-2,3,-6,-6
6982133664,5,-1,-2,-3,-2,-7,-1,-1
6982142520,-11,-20,0,-6,-4,-6,6,-3
6982142520,5,-8,-3,-2,-3,-6,-18,0
6982156766,0,7,2,3,-1,0,-5,1
6982156766,-20,-4,-7,-11,-5,0,3,-7
6982163619,2,-7,-2,3,0,7,4,-3
6982163619,-5,-20,0,-2,0,-13,0,-1
6982179943,3,-4,2,3,1,21,13,0
6982179943,14,-5,-3,-2,2,6,11,3
6982181459,-3,-6,3,0,-2,-2,-11,-5
6982181459,-1,14,9,3,-1,-4,3,2
6982193581,-3,2,-4,-5,-6,-5,1,2
6982193581,4,-2,-3,-4,-4,-2,1,0
6982202491,5,27,-4,0,3,7,-3,5
6982202491,-2,29,17,17,-2,-6,-1,0
6982216818,-5,-19,-22,-22,-5,-1,2,-6
6982216818,7,-8,-4,25,13,-3,3,1
6982223544,10,11,35,9,-6,-9,-10,-3
6982223544,-21,-14,-54,-57,-15,1,4,-4
6982239875,-18,30,7,9,0,-1,1,-3
6982239875,20,-72,-2,-5,3,3,-2,4
6982241467,8,-13,26,10,-1,8,6,6
6982241467,-40,37,-29,-29,-8,-21,-16,-14
6982253629,14,-9,11,32,0,5,7,3
6982253629,-20,43,-14,-21,-4,-7,-1,-7
6982262436,0,30,22,10,8,3,-2,3
6982262436,17,-65,13,20,-2,6,7,5
6982276752,-1,35,12,-13,-13,-7,-2,1
6982276752,-15,37,-15,-4,28,2,-2,-4
6982283608,-3,-4,-11,-15,-11,-5,0,-3
6982283608,1,2,-6,18,12,4,-4,5
6982300048,-4,-12,-2,21,-1,1,-4,-3
6982300048,0,11,24,19,-14,-3,4,1
6982301483,-6,6,-19,-27,-11,-18,-9,-7
6982301483,-1,-3,-3,-5,4,9,4,0
6982313583,3,8,7,32,-1,-11,-16,1
6982313583,-2,11,11,-4,-2,4,7,3
6982322491,-4,-15,-21,-6,-26,-13,-53,-4
6982322491,18,28,9,-8,8,10,-10,1
6982336733,1,9,11,23,-17,-6,33,-1
6982336733,-11,-12,-24,-40,32,2,5,-1
6982343634,2,-14,-16,14,0,11,11,2
6982343634,14,-2,16,19,0,0,10,0
6982359959,-34,-26,-15,-37,12,-12,-13,-9
6982359959,-13,-42,0,0,-27,5,3,-3
6982361446,0,-15,-9,5,18,-19,15,-6
6982361446,7,-6,-9,-3,-19,8,21,-1
6982373591,16,-21,-8,14,19,4,0,-2
6982373591,4,12,-1,0,-20,-9,6,-3
6982382465,-5,-3,-6,-26,1,-7,-15,2
6982382465,-3,4,6,8,-7,-6,-8,0
6982396757,12,10,-7,-15,-4,7,-11,1
6982396757,-7,-1,4,-2,-8,-8,-12,-5
6982403596,3,20,13,21,8,9,11,-1
6982403596,-1,-21,8,3,4,-11,-7,-2
6982419318,12,12,-20,-23,4,22,11,11
6982419318,-1,-4,-10,-12,-10,-12,-16,-7
6982426122,1,-6,-1,-3,5,4,9,0
6982426122,-2,12,3,5,-2,-4,-16,-1
6982433612,2,-4,12,-9,4,1,12,1
6982433612,4,16,3,-1,-10,-8,-12,2
6982442420,-5,-11,-11,1,-2,7,6,-3
6982442420,4,15,4,9,10,-6,3,2
6982456838,1,-4,-5,-1,-4,-7,-1,-1
6982456838,-2,-5,18,7,2,10,12,2
6982463612,-10,-6,-10,-6,-7,-8,1,-6
6982463612,-12,-3,-4,-10,3,5,13,-2
6982479340,1,9,14,-4,-1,-1,-7,-4
6982479340,6,-3,9,12,-3,7,13,7
6982486132,-5,-2,-4,3,10,-5,-6,-4
6982486132,3,4,-9,-6,-9,-12,4,-9
6982493586,2,-5,-1,-9,-5,-9,-29,12
6982493586,-5,1,-3,5,4,6,-3,-3
6982502493,3,6,-3,-1,3,12,11,1
6982502493,7,3,4,3,-1,-1,2,-1
6982516753,-17,-16,4,1,0,-13,5,-9
6982516753,10,-8,-7,-4,-2,5,-23,1
6982523659,-6,-2,-2,0,-3,-5,-11,2
6982523659,-4,-15,1,-1,-2,5,-12,0
6982539247,0,-11,-5,-9,-2,-1,-12,-3
6982539247,3,-2,-2,5,5,3,14,-2
6982546120,2,-5,-3,-2,-4,-2,9,-3
6982546120,0,-7,1,-1,0,5,-13,1
6982562434,-17,-5,1,1,-1,1,-4,-5
6982562434,-6,-2,0,1,-2,-13,5,-5
6982563942,-2,-6,0,-4,-1,-3,-13,2
6982563942,-6,-7,-5,-5,0,-1,4,-1
6982576787,10,3,-5,-8,-1,8,9,-1
6982576787,1,7,0,10,-1,-7,-9,1
6982583488,3,1,0,-9,-7,0,1,-3
6982583488,-10,6,6,21,8,4,0,2
6982599272,-5,-7,-9,-14,-2,-1,1,-5
6982599272,-3,3,-1,4,2,-3,-1,0
6982606093,8,0,-10,3,7,4,-2,-1
6982606093,7,5,4,-22,-5,0,5,4
6982622411,3,3,2,3,0,-4,-3,0
6982622411,-16,-4,-22,-23,-4,-7,-3,-3
6982623919,1,7,13,24,-8,-1,1,0
6982623919,-2,3,-7,-3,2,-2,-2,-3
6982636804,-10,-8,-25,-27,0,6,7,-3
6982636804,4,5,1,0,-3,-2,-6,-1
6982643593,-2,-2,1,-12,-4,0,-2,-3
6982643593,-9,-4,7,20,3,-2,0,0
6982659177,15,9,8,12,-5,-6,-1,3
6982659177,5,1,1,-9,-7,-5,-1,-2
6982666085,-1,-15,-5,1,2,-1,-3,0
6982666085,-11,-5,8,2,-7,-3,-1,-8
6982682499,-5,1,-3,14,-2,3,1,0
6982682499,4,23,1,-22,5,1,7,2
6982683940,-1,14,-1,-2,-6,-4,3,-1
6982683940,14,9,4,8,8,4,4,7
6982696778,-12,-3,-11,-20,-11,-7,-1,-9
6982696778,-11,9,11,22,-2,-9,-24,0
6982703553,12,-7,-7,7,9,12,6,7
6982703553,-4,-27,-9,-4,-5,6,10,0
6982719180,27,5,4,-11,-1,-2,-3,2
6982719180,0,-6,2,6,3,-3,7,-3
6982726088,-16,-11,-3,-5,-6,1,-5,-3
6982726088,10,3,-2,-16,-16,-10,-14,3
6982742438,-15,-11,15,29,20,5,13,-2
6982742438,2,-19,-5,-2,-10,-6,-4,0
6982743910,0,-4,-9,-4,-3,-1,-3,-1
6982743910,-10,10,-5,-14,-6,4,4,-2
6982756104,-6,-30,8,16,22,9,-1,-4
6982756104,6,-2,-7,2,-9,-4,1,1
6982764990,-10,-8,11,-9,3,-2,2,-1
6982764990,2,-1,-16,-24,2,0,-2,0
6982779284,-11,-12,-7,2,-23,-9,-11,-8
6982779284,-12,-10,1,12,20,13,5,-2
6982786085,-3,12,-4,-14,-5,-3,4,-8
6982786085,10,7,3,33,24,5,-33,0
6982802329,5,9,-18,-16,-14,3,6,4
6982802329,3,15,8,6,-2,-8,2,-3
6982803942,4,-2,2,-7,1,1,0,1
6982803942,4,17,-6,-7,-1,-7,9,-2
6982816096,-6,-6,12,17,-6,6,15,1
6982816096,5,22,-10,-8,1,-1,-8,-1
6982824954,-13,-11,10,-3,-1,-2,-2,-8
6982824954,-2,5,13,6,-8,-15,-25,-2
6982839181,18,16,10,10,7,-13,-2,11
6982839181,-5,-25,-6,-7,-7,34,-5,1
6982846054,6,13,-4,10,9,3,-10,-1
6982846054,-7,-5,10,-9,-6,-5,-1,-9
6982862437,0,14,-11,-13,-8,-12,-18,7
6982862437,-1,-21,-10,-2,3,5,-16,1
6982863919,0,1,-9,3,-4,-11,9,3
6982863919,-2,-9,4,9,7,15,0,-3
6982876031,2,13,3,-6,1,-3,8,2
6982876031,2,-3,1,-1,-2,-1,22,-4
6982884914,-2,-10,-6,-3,-4,-6,-15,0
6982884914,-4,0,-4,-1,-5,-13,15,-2
6982899289,-7,5,4,-3,-1,-23,-3,-11
6982899289,-5,-14,0,-2,-1,21,-2,-5
6982906102,10,-1,3,4,0,-1,-10,7
6982906102,1,-22,-6,-5,0,7,5,-4
6982922432,-11,-14,-1,-2,-1,3,6,-1
6982922432,4,-6,2,0,1,-13,5,-1
6982923936,-10,-2,-5,1,0,-1,-6,-3
6982923936,-1,-10,-6,-5,-6,-7,3,-1
6982936086,7,-7,1,-2,0,6,-6,3
6982936086,4,6,-1,-2,-4,-10,-4,-1
6982944945,1,-2,-3,0,0,-13,21,-10
6982944945,-7,-9,-10,-4,-1,19,29,7
6982959277,-2,-2,-3,-2,-2,6,2,-3
6982959277,10,6,11,1,-2,-7,-2,1
6982965943,-13,-3,-1,5,-3,-2,8,-1
6982965943,-9,6,-2,-2,-1,-1,-13,-1
6982982403,-6,5,-3,-6,-1,-12,-13,-4
6982982403,-2,17,2,2,-1,27,7,0
6982983920,5,-9,-4,6,-7,0,-1,-1
6982983920,-24,-30,-22,-22,0,-7,-2,0
6982996105,1,50,7,20,-6,-1,-8,-2
6982996105,16,-5,6,5,8,-13,-1,6
6983004900,-31,29,-16,-21,-15,-7,-15,-16
6983004900,29,-10,-9,-3,-2,-4,-8,-2
6983019212,6,-2,-11,-13,18,24,24,11
6983019212,-5,-59,34,12,-6,-9,2,7
6983026085,2,68,3,24,7,5,-5,2
6983026085,-26,-43,-5,-43,-16,-10,-1,-2
6983042426,1,-13,-18,-9,-10,-8,-16,-10
6983042426,13,-5,8,37,-5,-8,3,-2
6983043940,-14,7,-17,-51,0,-4,2,2
6983043940,12,96,35,58,2,1,6,-1
6983056051,23,-40,-15,-24,6,11,10,0
6983056051,-35,-49,-12,-7,-6,-3,-66,-5
6983064966,15,-6,4,-3,-3,0,18,9
6983064966,13,-8,-3,7,3,-2,-28,-9
6983079154,-18,30,3,1,-10,-10,1,-4
6983079154,4,34,1,-9,-7,-6,4,-4
6983086071,2,-48,-1,3,18,6,12,3
6983086071,-8,4,4,22,-6,9,-9,12
6983102308,3,1,17,18,10,-7,-10,-4
6983102308,-8,34,-18,-25,11,6,17,1
6983103894,8,10,8,32,-1,9,-8,2
6983103894,10,28,-7,-12,-10,-12,8,-6
6983124938,0,7,0,-13,-7,-7,-5,-3
6983124938,-15,-16,-17,7,-5,-19,-8,-5
6983126441,7,-36,-1,13,1,13,3,-1
6983126441,1,-30,-1,-17,23,11,15,-5
6983139275,-5,-36,-7,-10,-13,3,-5,9
6983139275,4,-5,-1,-18,-10,-6,10,-2
6983146054,8,-2,1,27,36,0,9,5
6983146054,3,-5,3,14,-6,7,8,-2
6983162445,-2,-8,0,9,1,7,-4,-1
6983162445,0,15,1,-1,-11,-22,-12,-7
6983163919,-10,7,18,-29,-9,9,5,0
6983163919,-10,-17,-21,-7,1,-9,-36,-2
6983176084,15,22,15,2,18,22,31,2
6983176084,-9,-16,-20,-10,-8,5,-11,7
6983184926,-2,1,-12,-12,-12,-11,-9,-6
6983184926,1,6,-5,-6,-2,-11,-5,-6
6983199163,-6,-2,3,-1,-7,-5,-4,-2
6983199163,-1,-2,-7,-8,3,1,8,-6
6983205951,5,-3,3,3,0,-3,-12,2
6983205951,-7,4,8,-6,-6,-3,9,0
6983222415,0,-11,0,12,-1,-5,-3,-1
6983222415,-1,10,5,2,12,7,13,0
6983223939,7,-5,-5,-2,-8,-8,-12,-1
6983223939,4,-10,-1,-2,-9,-2,-1,-2
6983235994,-12,-8,-1,0,-2,-7,1,-1
6983235994,3,7,1,1,2,3,-4,-1
6983244941,-6,-11,-2,-3,-8,3,4,-2
6983244941,6,4,-5,-9,2,-6,2,5
6983259267,-1,5,5,7,5,-4,-4,-3
6983259267,2,13,3,0,4,15,20,4
6983266085,2,2,-1,7,0,-9,-2,0
6983266085,0,2,1,0,-4,-9,-12,-1
6983282442,-1,3,-9,-5,-1,9,-23,0
6983282442,-3,2,0,0,-6,-10,-2,-7
6983283917,-2,-8,3,-1,-2,-13,-7,4
6983283917,-1,-4,-7,-5,-3,4,13,-4
6983296053,-7,-11,-4,-3,-2,-6,-7,-2
6983296053,8,3,0,1,2,1,0,-2
6983304922,-8,-14,-3,-1,2,9,17,-4
6983304922,7,-2,-1,2,-1,-6,23,8
6983319232,-4,-3,0,4,-2,2,-3,1
6983319232,5,5,0,1,1,0,7,0
6983326049,-3,2,-2,-8,-6,-2,-5,-7
6983326049,-3,-13,2,2,-1,2,-10,-1
6983342341,3,-2,-1,-5,-4,0,6,-2
6983342341,-6,2,-1,0,0,-7,-1,1
6983343939,-4,-4,-1,-8,-6,-1,-13,-5
6983343939,-4,-2,-2,-5,0,-1,0,0
6983356093,8,0,-2,-2,-2,-1,2,-3
6983356093,-7,-2,2,-3,5,4,-3,4
6983364921,4,2,1,6,-2,-7,-5,1
6983364921,8,2,11,31,0,1,-5,2
6983379292,-11,-5,-14,-13,6,6,9,-7
6983379292,4,9,2,-9,-9,-8,-4,-1
6983386107,-3,-1,-5,2,-9,0,0,1
6983386107,-11,3,6,-16,5,0,2,-4
6983401640,4,-11,-9,-10,-2,-3,-2,0
6983401640,2,13,-7,-3,-3,0,-1,0
6983408554,21,-14,-3,-10,-6,-5,-5,-3
6983408554,-37,28,19,21,-5,-4,-10,0
6983416056,0,9,7,-7,-10,-11,-8,-1
6983416056,-7,-5,-5,2,12,6,2,-9
6983424945,-19,-5,-3,-13,-6,1,-4,-1
6983424945,15,-5,-9,-2,-5,-4,-1,-2
6983439146,3,2,2,4,2,1,1,-3
6983439146,7,5,-1,7,-1,-1,-14,5
6983446057,-11,9,-5,4,5,5,2,-4
6983446057,14,1,-4,-15,4,-3,0,1
6983461648,4,20,13,35,-3,1,-1,1
6983461648,-3,-17,5,-20,-9,-4,-10,1
6983468558,12,4,-15,-27,-8,-8,-4,-2
6983468558,-12,0,3,19,11,6,12,-2
6983475992,17,-12,2,-8,-3,-1,-5,-5
6983475992,-17,-12,-12,4,-11,-7,-2,-3
6983484944,-8,-3,12,6,3,0,6,2
6983484944,1,-12,-14,-17,-2,5,10,-6
6983499282,4,-8,5,11,15,8,-7,11
6983499282,8,0,5,5,4,4,16,3
6983506011,-8,-5,8,13,9,2,-3,2
6983506011,12,-6,-6,-9,-12,-6,1,-4
6983522100,-16,-7,-4,0,-15,-12,-9,-4
6983522100,-4,-4,-6,-20,5,-2,-6,-4
6983528483,8,9,4,-8,-6,0,5,2
6983528483,1,-7,-3,14,3,5,-11,-1
6983544891,-5,6,-16,-20,3,0,5,-2
6983544891,-3,-3,3,4,-14,-11,-4,-3
6983546390,1,-6,-16,8,-10,-9,0,-7
6983546390,-2,7,1,-20,1,4,-2,1
6983559150,-8,-1,10,-3,-3,-2,-1,-6
6983559150,8,1,3,21,-1,2,14,1
6983566081,0,8,-12,-2,24,19,1,0
6983566081,1,-11,2,-4,-7,-12,-8,2
6983581735,-7,-12,-1,-11,-7,-7,1,-2
6983581735,12,9,-16,-12,-14,8,12,3
6983588556,-3,-6,0,10,1,-5,-7,-3
6983588556,-1,5,-6,-13,-2,-8,-7,1
6983604870,5,11,1,0,-5,8,12,3
6983604870,0,6,4,17,24,3,1,2
6983606419,-5,-2,16,4,-5,-5,-7,0
6983606419,-18,-27,3,-4,-6,8,1,-9
6983618535,9,7,-8,5,2,-6,9,4
6983618535,-1,19,17,-2,-9,-9,-12,-5
6983627442,6,11,-3,1,-5,-7,-5,-3
6983627442,5,2,-16,-5,-1,-5,-2,0
6983642453,6,21,8,9,0,-3,8,1
6983642453,-14,-21,-7,-5,6,4,1,0
6983648527,3,0,-11,-9,-4,-10,5,-6
6983648527,-4,8,3,2,-1,4,-2,-4
6983664202,-2,13,-1,0,-3,-9,-11,-2
6983664202,8,9,2,5,6,-10,-5,6
6983664900,-5,-10,3,-5,-3,19,-11,-3
6983664900,4,-2,-2,2,4,12,18,0
6983688115,-12,-16,-7,-4,3,0,8,1
6983688115,-2,-11,-3,-3,-1,-9,-15,-8
6983690323,-5,-16,0,-4,-3,7,-3,1
6983690323,5,-4,5,5,4,-7,-5,-1
6983704290,-14,-26,-1,-4,-1,0,-8,-3
6983704290,5,-1,8,1,-3,2,10,1
6983708518,3,5,0,3,0,-3,-2,-1
6983708518,1,2,-1,1,-1,-2,-3,2
6983724084,12,-15,-4,-3,0,2,0,-3
6983724084,-31,-14,-13,-7,-1,1,-5,-4
6983725059,3,-9,-3,-1,0,-3,-1,0
6983725059,-8,-9,2,1,-3,-2,-9,-2
6983739975,2,-6,-3,-4,-2,-2,-10,-4
6983739975,-21,-3,-3,-5,-12,-1,2,-5
6983745992,8,6,4,1,14,3,5,-1
6983745992,1,2,-9,0,2,2,1,3
6983762363,1,10,7,3,-7,-2,-9,-4
6983762363,17,12,-29,-32,-5,1,2,6
6983768337,-30,-1,29,17,-8,-5,-2,-9
6983768337,30,23,-46,-51,-1,-2,6,6
6983784119,-11,-25,0,13,-1,1,0,-1
6983784119,-14,8,29,1,2,-2,-7,-3
6983785060,-3,43,-17,29,1,5,12,3
6983785060,7,27,28,49,6,-2,1,-3
6983799942,-25,-54,-39,-51,-8,-5,-27,-8
6983799942,19,95,35,4,-3,2,9,6
6983805923,-32,-117,-29,-8,1,-9,-9,-10
6983805923,6,76,28,32,0,0,-1,-3
6983822388,10,-2,15,3,-1,-9,-13,3
6983822388,-18,-37,-39,-20,-13,-7,-4,-11
6983828466,6,-17,-26,-52,-13,-4,2,11
6983828466,-26,35,27,49,19,11,-29,-8
6983844075,2,-6,11,9,22,5,10,2
6983844075,-8,-34,-28,-4,-10,-5,-8,-4
6983844936,18,51,23,9,9,4,-23,8
6983844936,0,-71,2,-32,-22,-1,10,7
6983859904,-3,41,21,12,15,-4,7,-1
6983859904,1,7,-1,0,14,14,7,1
6983866064,9,13,-5,1,-3,-1,6,2
6983866064,-5,2,-12,-36,-7,-9,-11,-2
6983884061,-5,53,-5,1,-10,1,-7,6
6983884061,18,11,4,-9,-2,-9,-3,-4
6983888499,4,5,1,29,-20,-23,4,-7
6983888499,-18,-61,-14,-14,-13,1,-1,-7
6983904166,18,-21,-9,-15,8,9,11,2
6983904166,6,-48,-4,50,36,8,9,5
6983904923,10,-2,5,7,11,12,5,1
6983904923,-12,-12,-2,1,13,0,9,-6
6983919912,1,-4,-12,-4,-21,-2,5,7
6983919912,5,-9,6,-1,-6,-3,-10,-2
6983926033,-4,2,5,-9,6,7,-8,-4
6983926033,12,5,-8,-4,-7,-7,-10,0
6983942413,1,-6,0,-5,-9,-7,1,-1
6983942413,-11,2,6,3,-2,-6,-17,-1
6983956680,-6,-4,0,-18,-8,-8,2,-5
6983956680,-11,-33,-19,-5,-3,1,-10,-2
6983964227,5,2,0,8,5,12,5,-2
6983964227,-1,-4,-6,1,-5,-10,0,-4
6983964969,-1,10,2,-4,-7,-4,-1,-5
6983964969,0,-3,0,-10,-2,-4,5,-1
6983979946,-5,-6,-16,1,5,-6,0,-7
6983979946,7,16,7,5,-5,-1,2,1
6983985978,-1,2,1,-8,-2,-6,-1,1
6983985978,3,9,8,5,4,-2,3,1
6984000973,0,13,4,1,-2,-5,-3,0
6984000973,-4,-20,-8,-9,1,17,20,5
6984008431,10,10,1,-1,-3,-2,2,1
6984008431,1,16,4,4,0,-15,-1,6
6984024104,-18,-8,-7,-1,-3,16,-5,-10
6984024104,2,2,8,0,-2,3,-7,1
6984025058,4,3,3,1,4,-3,-7,1
6984025058,-4,-4,-8,-2,2,5,7,-3
6984039918,-2,-3,1,-7,-12,-27,-14,-4
6984039918,2,2,3,4,3,20,3,1
6984046070,0,15,7,3,6,12,20,3
6984046070,0,-8,-1,-2,-2,2,-10,-2
6984061061,0,3,1,2,0,-8,0,-2
6984061061,-3,1,4,-2,-5,-6,-10,-5
6984076761,-3,-8,-4,-4,-5,-6,3,-3
6984076761,-2,-11,-2,0,-2,1,4,-2
6984085479,-6,-2,3,-3,-4,-1,10,2
6984085479,9,-3,-5,2,-3,0,-1,-7
6984086304,-8,1,-2,2,2,4,6,2
6984086304,-2,-1,-4,-4,-3,-8,4,2
6984099913,-3,-7,-12,-6,0,5,-2,-3
6984099913,-10,-9,-4,-6,-2,-9,-1,-6
6984106000,-7,2,-2,-3,-4,4,7,1
6984106000,11,5,3,-1,0,1,-3,2
6984121050,2,-4,2,11,2,2,12,0
6984121050,4,2,3,-3,-8,-4,-6,5
6984128540,-12,-14,-12,-9,-1,-3,-9,-5
6984128540,-3,-7,-12,-11,0,-4,0,-1
6984144211,-5,1,11,14,8,10,-3,-6
6984144211,5,5,-6,-11,2,-5,-3,-1
6984144964,-1,-9,-3,-1,-6,-4,-7,0
6984144964,-10,-18,-3,1,0,2,2,1
6984159964,8,32,0,-7,-7,-5,-5,0
6984159964,-5,-12,1,17,6,1,2,-2
6984165976,-2,-4,-2,-17,-8,-5,-8,-6
6984165976,0,5,5,15,-1,-3,-3,0
6984181055,17,0,-2,-10,0,0,1,4
6984181055,-9,4,-1,7,-3,-2,-1,-3
6984188594,3,2,6,-8,5,4,-1,-2
6984188594,5,18,-7,-26,-6,-5,-2,-1
6984204183,-6,3,-1,9,-8,-4,-5,-6
6984204183,-7,0,-3,-11,-4,-9,-3,-1
6984204857,-5,-6,1,33,14,5,-4,0
6984204857,6,25,8,-1,7,10,7,0
6984219959,0,2,2,3,-6,-2,-4,0
6984219959,-7,-10,-6,-11,-2,-2,-2,-2
6984225996,-14,20,3,7,-3,-3,-2,-4
6984225996,-3,2,3,0,-10,-5,-5,-2
6984241096,4,-7,-6,10,6,1,2,-1
6984241096,-6,-19,-13,-22,-7,-3,-1,-2
6984248525,11,3,-4,-12,-4,1,-1,2
6984248525,0,-17,2,10,4,-1,-1,-3
6984264121,-11,-12,0,-8,-1,1,-2,-5
6984264121,-2,-10,7,14,-2,0,-2,0
6984265052,8,-1,-8,-32,-8,-4,-1,2
6984265052,-1,-4,6,40,9,4,-3,-2
6984279939,-11,-14,-9,-12,3,1,0,1
6984279939,7,7,3,3,4,4,3,3
6984285940,-6,-6,0,-3,-7,-2,-3,-4
6984285940,0,-16,4,22,-8,-5,-5,0
6984300956,-4,-3,-7,-42,-9,-5,-1,-3
6984300956,10,6,-5,19,-2,-2,4,2
6984308532,-2,3,-1,-26,-2,-14,-8,-4
6984308532,4,4,-16,-11,5,17,9,0
6984323511,-10,14,28,60,16,-9,-5,-8
6984323511,-3,7,2,-14,0,3,4,1
6984331077,13,-5,1,15,13,6,5,3
6984331077,-4,9,-14,-14,-6,-4,2,1
6984354769,7,4,6,-20,-14,1,0,0
6984354769,-4,-6,-1,13,-4,-10,-8,-4
6984355620,9,10,6,5,-1,-3,4,2
6984355620,-4,25,3,-1,16,10,9,0
6984361002,-9,-18,-12,3,-2,2,-2,-2
6984361002,2,0,2,-5,-12,-14,-4,-3
6984368397,0,11,7,2,-3,4,-1,1
6984368397,-15,-13,-6,-15,-6,-6,-3,-5
6984383551,-1,-8,-7,-2,2,1,0,-1
6984383551,16,2,-12,-11,-1,-2,0,0
6984391069,11,-3,-17,-1,-1,5,15,5
6984391069,-42,-43,4,-10,-6,-8,-9,-12
6984406659,-2,-7,4,1,-3,-6,-6,-3
6984406659,-13,-4,-1,-14,-3,1,-14,-7
6984407473,1,-12,0,13,3,8,29,4
6984407473,10,1,2,-5,-6,-4,-1,-4
6984420961,1,4,-6,-8,-6,-5,5,5
6984420961,2,2,0,2,5,5,8,1
6984428511,1,3,9,7,-2,1,-13,1
6984428511,1,-7,-4,-1,1,-12,-10,2
6984443536,7,13,3,4,6,10,8,1
6984443536,2,17,10,15,13,9,5,4
6984450981,-21,-14,-3,-1,-4,4,-15,-10
6984450981,8,6,1,-5,-5,-7,-4,1
6984459912,0,1,-5,-1,-7,-3,18,-1
6984459912,6,-5,-5,-2,0,3,3,0
6984465985,-1,-7,-8,-4,-4,-11,-12,-2
6984465985,8,6,4,-1,1,7,-6,1
6984481075,1,-4,-4,-3,-1,-2,-2,1
6984481075,-8,-13,5,-2,-2,-6,-2,-2
6984488467,-26,-24,-4,0,0,-2,1,-10
6984488467,3,-8,-2,0,-2,-4,0,1
6984503409,6,-8,-1,-1,3,1,-4,3
6984503409,6,-11,-4,1,2,5,3,2
6984511058,-16,10,-3,-1,-5,-14,-19,-5
6984511058,5,1,1,0,-2,6,-4,-1
6984526652,-14,-6,-2,-3,1,16,-18,-2
6984526652,7,11,0,-2,-1,-3,7,0
6984527341,14,7,-2,-1,0,-3,0,2
6984527341,4,0,0,-5,-4,-8,-6,1
6984540996,11,4,-2,-3,-3,-2,0,-4
6984540996,-23,-11,-4,-1,-2,-4,-5,-1
6984548519,-13,8,7,10,5,2,0,0
6984548519,7,-7,-8,-8,-3,-3,-9,-9
6984563532,-13,33,-5,-15,-11,-5,-2,-3
6984563532,9,-6,18,37,1,-1,-5,-2
6984570982,17,15,-13,-48,-6,-1,1,7
6984570982,17,-63,-22,9,-10,-11,-1,4
6984586708,0,46,6,-17,22,13,2,-8
6984586708,-13,24,29,4,-1,9,6,8
6984587375,-6,3,-50,26,5,3,1,-2
6984587375,18,19,29,-30,-1,-5,0,6
6984601062,-17,-35,-22,-28,-19,-19,-11,-11
6984601062,2,57,29,28,-21,-11,-6,-4
6984608495,12,-35,-22,-63,13,3,-9,1
6984608495,-22,-9,2,27,-8,3,25,-3
6984623572,6,9,18,29,12,-1,-6,7
6984623572,5,-3,-25,-33,4,-3,-53,-5
6984631035,-2,15,10,35,-6,-11,14,-2
6984631035,-4,6,-10,-1,5,7,2,4
6984646512,-9,-8,8,2,-7,-4,-1,-5
6984646512,-5,-12,-9,2,-2,-6,-6,-7
6984654200,10,12,13,-5,-4,-2,2,-1
6984654200,-14,37,1,-5,-3,-18,14,3
6984660887,8,23,2,12,2,36,17,5
6984660887,-3,13,-6,-13,1,-2,4,-2
6984668483,-8,-2,-2,2,-16,-8,-8,-7
6984668483,-4,0,3,8,13,5,1,-3
6984683502,8,-30,-11,-2,-9,-19,8,1
6984683502,-1,-36,-18,-21,6,7,-30,5
6984690961,-5,-27,21,31,17,25,24,1
6984690961,-2,-19,-13,11,-6,-13,-20,-6
6984706655,0,-31,2,6,-5,0,3,-4
6984706655,7,-11,-10,-24,13,16,17,0
6984707356,-3,-2,7,4,-4,-16,-6,-1
6984707356,0,13,11,-1,-1,8,2,0
6984720970,-5,5,-10,9,-6,-20,-3,0
6984720970,0,-14,0,-3,-4,1,20,-1
6984728543,-8,-5,13,6,-2,10,-7,-2
6984728543,7,13,2,3,4,2,-1,2
6984743541,-5,-10,0,-7,-1,-2,-9,-3
6984743541,-5,-8,-6,1,-3,-7,-3,-3
6984751059,9,16,2,2,0,-1,1,0
6984751059,-3,9,-3,-5,-5,4,-6,-2
6984766640,4,-1,0,-1,4,-3,5,2
6984766640,-11,-6,-3,6,1,-7,-12,-3
6984767343,6,4,3,2,-4,-4,6,0
6984767343,6,7,-4,-10,0,0,-2,1
6984781038,7,2,0,5,2,1,3,4
6984781038,-29,-19,-24,-13,-4,-6,1,-11
6984788465,-2,-1,-2,-5,-6,-5,-6,3
6984788465,-15,-13,1,-6,1,3,0,-6
6984803510,7,1,-7,-2,3,-2,2,-1
6984803510,13,11,11,1,-13,-20,-8,1
6984811061,-9,-4,-1,-3,0,0,7,-1
6984811061,4,1,-2,-2,2,8,3,1
6984826667,-10,0,9,8,6,4,-3,-2
6984826667,0,-13,-8,-2,-6,0,3,-1
6984827373,0,2,-2,-3,-6,-14,-6,-6
6984827373,4,2,-11,-5,-2,-3,-18,6
6984841037,-2,-12,-2,-3,-1,-4,-10,1
6984841037,2,3,2,3,2,3,10,1
6984848518,5,-7,-8,-4,-1,1,3,-4
6984848518,-6,-14,-2,-2,-3,3,-8,-5
6984863478,-5,-9,-3,-4,-3,-5,-10,1
6984863478,1,-1,8,4,3,3,13,0
6984871060,0,-6,2,1,-1,3,-16,2
6984871060,-1,5,1,0,1,-5,1,-3
6984886612,-3,-7,-3,1,0,0,2,1
6984886612,6,-3,-2,-1,0,2,7,-1
6984887345,2,3,0,-1,-1,0,-2,0
6984887345,-1,0,0,2,0,1,-5,4
6984909134,-14,0,-5,-6,-3,-1,-1,-3
6984909134,8,8,-1,2,1,2,5,1
6984909804,17,10,0,-4,-6,-9,-2,4
6984909804,-26,1,-1,-2,-5,9,-1,-8
6984923478,-3,-4,-1,-3,5,5,3,0
6984923478,-2,1,-1,2,0,-5,-12,-4
6984930848,1,3,-1,4,-1,2,7,-4
6984930848,9,-1,-1,-13,-5,-12,5,9
6984946648,-8,3,0,0,-7,-4,-8,-1
6984946648,14,8,-3,11,2,-4,-1,1
6984947342,-26,-5,0,3,-2,-4,5,-5
6984947342,0,0,3,0,3,-3,2,-9
6984961003,9,4,-3,-8,-2,2,2,2
6984961003,2,-1,3,-3,-1,-2,2,1
6984968519,2,-1,-5,-6,-3,3,-9,-1
6984968519,-24,-1,13,17,0,-7,-1,-3
6984983434,6,4,-20,-36,-4,1,-3,-1
6984983434,-1,-8,1,5,0,6,10,2
6984991096,11,10,8,13,1,3,-3,3
6984991096,0,7,-6,-17,-4,-8,-9,-9
6985006684,17,0,-12,2,2,1,5,8
6985006684,-27,-17,-3,-6,2,6,3,-5
6985007368,-14,-9,2,0,-5,-5,-3,-3
6985007368,27,8,6,4,-6,-3,-1,4
6985020980,-9,20,14,13,0,-2,-1,1
6985020980,-24,-8,-7,-1,-2,-4,-2,-7
6985028457,4,13,-12,-27,4,2,-4,3
6985028457,5,-13,-6,13,3,8,4,-5
6985043466,3,26,24,29,-3,-2,2,6
6985043466,-10,-2,-9,-21,-3,-4,-4,-3
6985050920,0,-17,-2,11,7,0,-3,-4
6985050920,-7,-10,-13,-19,0,4,2,-4
6985066564,9,-23,-1,7,1,3,1,3
6985066564,10,-5,11,0,-9,-7,-6,0
6985067449,-3,6,-5,-12,-7,-3,-4,-3
6985067449,1,-10,-9,-3,-2,-7,-4,-2
6985081055,-8,-22,9,6,2,2,-1,-7
6985081055,4,3,1,16,-1,3,6,4
6985088444,0,0,3,-14,-1,3,-3,-4
6985088444,-6,-1,-1,25,12,5,4,3
6985103507,-1,7,-16,-53,-13,-8,-3,-1
6985103507,7,9,-7,-2,7,2,3,1
6985111085,-9,-18,-6,19,9,3,2,1
6985111085,2,11,11,-1,3,3,7,6
6985128008,1,4,2,14,-4,-6,-7,-7
6985128008,6,0,-4,-8,-8,-7,-2,-2
6985130172,1,0,-9,-23,-25,-9,-7,-2
6985130172,3,2,1,13,5,-4,-5,-3
6985142288,-7,-17,-11,-20,6,3,2,-1
6985142288,9,-2,4,13,2,3,4,3
6985158017,-7,5,3,11,9,2,1,2
6985158017,-4,-5,9,-10,-12,-4,-6,-4
6985163424,-5,-2,0,-2,-3,-4,-6,-4
6985163424,-1,2,-7,-1,-2,-5,1,-3
6985170931,3,-7,0,-2,-2,0,0,1
6985170931,-4,3,-2,-5,1,3,0,-2
6985188009,-1,-14,-7,9,4,0,8,-4
6985188009,12,19,0,-2,1,0,1,3
6985188760,-3,7,10,5,0,1,-1,1
6985188760,-1,8,-9,-9,-7,-4,-3,-2
6985200958,0,-11,-6,9,2,2,-8,-1
6985200958,-11,-8,-10,-16,-6,-4,-9,-5
6985208437,7,-2,-1,-3,0,3,7,3
6985208437,-1,-11,0,-7,-6,-3,-4,-5
6985223415,-21,2,2,5,0,-1,-5,-2
6985223415,-3,-6,1,-4,-4,-6,-3,-3
6985230940,-5,-2,-1,0,3,-1,-4,-8
6985230940,-3,3,-5,-2,-4,-7,17,-2
6985246002,9,2,-4,4,0,5,29,10
6985246002,-4,1,0,0,1,6,1,-2
6985254131,-1,-9,5,3,-1,-5,-9,-6
6985254131,0,-5,-3,1,0,-7,13,4
6985261011,8,5,0,0,-4,-19,-13,-6
6985261011,-7,-6,1,1,0,13,-19,0
6985268380,-4,4,1,2,2,5,25,0
6985268380,-5,-9,-5,-4,-2,-15,-16,0
6985283532,1,1,1,3,0,15,1,-5
6985283532,3,-8,0,-1,0,-3,15,2
6985291001,16,-5,-2,-1,-5,-8,-18,-2
6985291001,0,-1,-5,-4,0,5,0,1
6985305954,-18,-8,0,0,-3,-5,4,-4
6985305954,2,2,-2,1,-1,-7,3,-3
6985314158,-4,-3,-5,-1,-1,2,-10,-2
6985314158,11,9,-1,1,-1,-1,2,1
6985320885,13,2,0,1,-1,0,-24,3
6985320885,-14,5,-2,-3,-3,-1,-7,-5
6985328498,9,7,0,2,-4,-5,-6,2
6985328498,18,27,2,6,3,7,-2,3
6985343460,-7,-17,-3,-2,-3,-14,-11,-4
6985343460,-13,-18,-6,-18,2,5,2,1
6985350951,-18,-9,3,19,3,-4,-1,-8
6985350951,-7,26,10,8,-1,1,0,0
6985365983,3,-10,-6,-11,3,5,4,1
6985365983,2,17,-25,-16,-5,-3,3,0
6985374163,11,40,1,-12,12,2,3,6
6985374163,-8,-26,13,44,-5,6,-1,-6
6985380985,10,-38,-23,-38,-6,-8,-6,1
6985380985,7,-5,1,-12,-5,-3,-1,0
6985388520,-13,12,14,-1,-14,-3,-7,-6
6985388520,21,34,-24,-1,5,3,-1,4
6985403389,-23,31,36,33,0,1,-2,-6
6985403389,-7,-2,-10,-12,-2,-9,-2,-2
6985410932,2,-37,-4,-1,-4,0,-2,5
6985410932,-15,-18,1,-17,1,4,10,-3
6985425924,16,19,8,32,6,4,-6,0
6985425924,11,12,12,8,8,5,6,4
6985434135,11,-16,-10,-10,-8,-3,-10,5
6985434135,-5,-10,-3,-4,0,0,0,-4
6985440971,-3,8,-5,-20,-4,-6,-1,0
6985440971,-3,14,8,2,-14,-8,-4,-2
6985448424,-7,2,-10,10,6,4,9,-4
6985448424,5,18,-4,-11,-4,-3,-6,1
6985463493,-7,6,-3,-9,-11,-5,-3,-4
6985463493,-13,-14,-2,-14,-8,-5,-2,-5
6985470935,1,-4,0,4,4,1,3,-3
6985470935,-13,-31,0,2,5,0,-4,-1
6985485865,-8,-27,15,13,-7,0,2,-8
6985485865,12,-12,0,21,21,6,5,4
6985494180,-7,-9,-4,-12,6,11,1,0
6985494180,-2,-14,-3,-10,-16,-10,-6,-4
6985509419,3,4,-13,-8,-9,-7,1,1
6985509419,5,3,8,13,2,-2,-5,-2
6985516674,-9,-6,-7,4,-1,1,0,-2
6985516674,-1,-5,1,1,13,7,-1,-1
6985524899,9,9,-1,0,-1,3,5,1
6985524899,-1,-4,-7,-10,-5,0,6,0
6985531123,4,4,0,6,-3,-12,-5,-4
6985531123,-4,-13,4,-11,-9,-3,-4,-1
6985546003,5,11,-9,-4,8,2,-6,2
6985546003,-16,-13,4,-5,-6,-3,2,-4
6985554123,7,-3,1,2,1,-2,-2,2
6985554123,-4,-6,-3,0,-1,-6,-4,-5
6985569010,-8,-9,-16,-17,-2,0,-3,-1
6985569010,1,11,3,15,5,1,0,0
6985569842,7,-2,3,-1,-6,-10,1,3
6985569842,-2,-2,-7,-14,-1,7,-8,-4
6985583401,-1,8,5,9,5,7,10,1
6985583401,2,2,-4,-10,-10,-5,-6,1
6985591003,-5,1,-4,-2,-3,-2,-3,-4
6985591003,-2,-6,3,4,4,4,3,1
6985605918,-1,0,4,8,2,-5,-3,-4
6985605918,0,-5,-3,-2,-5,0,1,2
6985614140,-2,-4,-7,-17,-5,1,1,0
6985614140,-3,3,9,17,6,-5,1,0
6985629119,0,3,-18,-25,2,5,6,0
6985629119,9,6,3,21,-1,-4,-8,-3
6985629889,-16,0,-5,-13,-9,-7,-4,-4
6985629889,-2,-2,-8,-18,-10,-2,-1,-1
6985643436,6,3,7,13,4,-2,-3,1
6985643436,1,-4,1,0,-1,-12,-5,-1
6985650936,-12,-4,-3,1,1,15,4,-3
6985650936,1,-1,2,-2,3,5,9,2
