timestamp,emg1,emg2,emg3,emg4,emg5,emg6,emg7,emg8
6755458302,-12,-7,0,-2,-4,1,-5,-4
6755458302,-1,-9,-2,-16,-8,-2,-1,2
6755458949,9,10,-3,7,0,-2,-5,-2
6755458949,-4,-1,0,-7,-5,-6,0,0
6755460613,-4,-2,2,9,16,7,6,0
6755460613,-3,3,-4,-3,-2,5,2,-1
6755463568,0,-2,-3,-6,-4,-8,-6,-3
6755463568,6,-1,0,1,-5,-2,-4,-2
6755470660,-4,-10,-1,-9,-9,-2,-1,-3
6755470660,-6,7,3,-6,-4,-9,-1,-2
6755482125,3,-11,-11,-8,-7,9,-1,3
6755482125,-6,-3,3,15,15,5,9,-1
6755485637,5,6,2,10,1,-3,-2,1
6755485637,2,-1,0,3,5,9,-1,-2
6755500662,-11,-4,0,4,-1,-10,-5,0
6755500662,-1,-4,-6,-16,-20,-3,-7,-5
6755509299,-4,-1,4,-8,1,-5,-6,-4
6755509299,12,2,-4,4,5,-2,5,0
6755517084,-1,5,-3,-12,2,14,0,3
6755517084,-13,-1,-1,1,-1,0,-8,-2
6755530798,4,0,-7,-10,-5,-1,7,0
6755530798,-6,-7,9,20,-1,-2,-5,-3
6755540600,5,3,-6,-15,8,0,3,-1
6755540600,0,-2,-4,-7,-7,-4,-3,-1
6755578817,3,-7,3,3,8,4,4,2
6755578817,3,3,3,6,3,0,0,-2
6755580500,-5,1,-2,-1,-5,-4,0,-1
6755580500,-2,-7,-1,0,-2,-2,-3,0
6755583605,0,-1,1,-9,-9,-6,-1,1
6755583605,-5,-2,4,11,1,1,0,-4
6755584284,2,-4,1,10,4,2,1,-1
6755584284,4,3,-10,-13,-4,-3,0,-2
6755590492,0,4,-3,2,3,1,-1,-2
6755590492,2,5,-5,-11,-8,-4,-4,-2
6755599356,-10,-6,2,5,3,0,1,-2
6755599356,-3,-5,-1,1,7,4,2,0
6755605437,-6,-6,-5,0,3,-2,-1,-3
6755605437,7,-2,-2,-11,-10,-8,-13,-1
6755620435,7,10,0,-1,-1,3,11,2
6755620435,2,1,4,12,13,3,10,2
6755627944,-3,-4,-4,-7,-2,6,-3,-3
6755627944,-6,-3,11,6,-1,3,0,2
6755636942,-3,-4,-9,-10,-8,-9,-13,-4
6755636942,2,-4,-3,-9,-9,-5,1,-6
6755650436,-2,5,1,5,2,3,-8,4
6755650436,7,7,3,6,4,-2,-1,0
6755659352,-4,-15,-10,-20,-8,-5,-17,-4
6755659352,0,11,19,20,-2,-3,4,-4
6755665471,1,0,7,0,-4,-11,-7,-3
6755665471,-7,-8,-11,-6,1,6,0,1
6755680463,8,5,-2,-6,-1,-4,8,0
6755680463,-5,-3,-9,-3,-2,-5,7,-2
6755687851,-6,-5,-2,-1,-3,12,-12,3
6755687851,-7,-8,-6,-10,-5,-11,7,-1
6755696791,-4,-7,0,2,1,7,-31,-6
6755696791,5,4,5,2,-3,-11,40,4
6755710437,3,3,-2,0,-1,21,24,-3
6755710437,-6,-8,-4,-3,0,-6,8,0
6755719303,-3,-5,5,5,2,2,-24,-5
6755719303,1,-7,-7,-8,-6,-4,5,0
6755725454,0,-8,-7,-7,-2,-9,-7,4
6755725454,3,-3,-2,0,0,2,1,-4
6755740451,2,10,9,5,-3,-8,2,-4
6755740451,-12,-1,-6,-4,6,11,-15,-2
6755747982,-7,-13,-8,-5,-8,-9,4,-3
6755747982,3,20,12,10,-2,1,-1,3
6755762912,18,40,9,11,10,2,12,5
6755762912,-6,-42,-22,0,0,3,-16,-4
6755770410,-32,20,-8,11,-5,-9,0,-10
6755770410,17,2,-8,-25,-3,1,-3,3
6755779296,26,31,63,77,-1,1,12,15
6755779296,-44,48,-50,-70,-4,-3,-22,-18
6755785324,4,-71,-16,-27,-1,-1,6,3
6755785324,25,88,4,50,-9,-3,0,3
6755800391,-15,-83,-21,-42,7,3,3,-2
6755800391,-16,4,55,36,-24,-8,-16,-12
6755807962,22,15,-1,-5,4,1,6,9
6755807962,-45,-25,-36,-16,16,14,2,-7
6755822879,-2,104,-14,-22,3,-2,11,7
6755822879,65,67,43,31,-8,1,-4,20
6755830462,-19,-11,16,-13,-19,-25,-26,-10
6755830462,4,26,36,33,-3,12,14,-2
6755839274,8,-8,-40,14,16,8,7,3
6755839274,-20,-71,2,-18,21,7,10,-7
6755845368,24,55,47,35,-4,-1,-3,11
6755845368,10,-21,-21,-44,9,-5,-12,0
6755860337,-21,-14,0,-41,-26,-8,19,-13
6755860337,0,7,-23,30,10,3,-60,2
6755867868,6,20,-15,-21,6,5,35,8
6755867868,-22,-25,-4,0,-8,-14,-10,-10
6755882904,-5,-5,8,50,-11,-12,-1,-13
6755882904,13,-2,-19,-88,-24,-20,17,10
6755890439,-2,-21,-17,-6,-12,-3,-14,-11
6755890439,-6,-33,4,19,40,28,15,6
6755899316,-6,-9,8,4,16,12,11,0
6755899316,-4,-25,2,23,-14,-6,-33,-12
6755905326,-8,-9,-6,2,-25,-5,24,-2
6755905326,11,0,-15,-22,-3,-20,11,2
6755920416,-1,-20,8,11,12,16,-20,0
6755920416,-6,-10,-1,8,-6,-1,3,1
6755927836,-1,5,-4,-10,-7,2,-4,-5
6755927836,-6,-20,-8,-20,-13,-13,-13,-5
6755942960,-3,-17,-12,-8,3,-2,3,1
6755942960,-1,-4,3,0,2,3,10,2
6755950440,7,13,-8,2,13,-3,1,1
6755950440,-10,-9,10,14,-6,-1,-20,-9
6755959273,-9,1,-7,-1,-5,-4,3,1
6755959273,2,1,-8,-3,7,4,16,1
6755965428,-1,5,14,19,9,-2,-15,-7
6755965428,-4,3,4,-5,-7,-2,-4,-2
6755980405,3,-7,-8,-27,-8,-7,-4,1
6755980405,9,21,9,17,-2,-4,-2,5
6755987900,-11,-1,-1,4,8,-1,-5,-6
6755987900,-4,-4,-6,-11,-7,3,-8,3
6756002829,3,3,2,-6,1,-3,20,3
6756002829,0,0,-5,10,3,5,3,-3
6756010417,0,-3,-11,-3,2,-3,-11,1
6756010417,3,14,4,7,6,6,15,0
6756019295,0,-2,2,-5,-3,0,-5,-1
6756019295,-3,-1,-4,0,7,4,7,1
6756025434,3,2,-1,2,1,-3,-3,0
6756025434,0,-6,4,2,-11,0,1,-1
6756040477,-8,-6,-11,-10,-7,-8,-3,-2
6756040477,-2,4,7,1,2,6,-3,-1
6756047931,3,9,9,5,-2,-3,-6,-4
6756047931,-6,-3,0,-4,0,-4,-7,0
6756062966,-7,-6,2,-6,-7,-4,-14,-4
6756062966,1,3,-8,-9,4,-4,-7,0
6756070473,-1,-5,0,-4,1,4,27,1
6756070473,5,0,1,12,-1,2,-2,-3
6756079312,-3,-5,-16,-21,-10,-5,-5,-2
6756079312,8,4,9,4,0,3,3,1
6756093623,0,7,1,2,5,-3,-4,0
6756093623,-8,-7,-3,-6,-6,-6,-6,-1
6756100462,3,4,2,5,1,6,5,-1
6756100462,1,4,-2,2,-1,-7,9,2
6756107959,0,1,-2,-1,1,-1,-24,-3
6756107959,8,11,3,-4,-2,1,-7,2
6756122911,5,-6,-2,1,0,0,4,1
6756122911,-12,-7,-7,-6,-5,-5,-30,-6
6756130394,8,6,12,4,4,2,21,9
6756130394,-2,1,-6,-4,-3,5,-3,-2
6756139287,-8,3,2,-2,-2,-13,5,-7
6756139287,-3,-6,-5,0,1,2,-28,2
6756153453,-5,-9,-5,-2,2,-3,11,-5
6756153453,13,-1,4,5,1,5,-6,-2
6756160407,-6,-7,-3,-2,-1,-3,-24,6
6756160407,-9,-9,-2,-4,-4,0,15,-5
6756167821,6,1,-5,-1,-1,-6,-12,-3
6756167821,-10,-13,-4,-1,0,-10,7,4
6756182915,2,-8,-4,-3,-4,3,-5,-9
6756182915,3,19,1,3,0,-1,11,3
6756190385,10,25,5,5,1,8,-5,4
6756190385,19,48,24,4,-5,-6,-1,-3
6756199280,-11,-29,-20,-12,-1,1,-2,0
6756199280,2,22,15,30,8,5,12,6
6756213621,6,73,11,19,-3,-1,-6,-11
6756213621,-48,-102,-39,-45,-5,-4,-3,-9
6756220378,22,31,23,19,2,-3,6,8
6756220378,18,49,-15,-35,-12,-7,-5,1
6756227938,-36,-127,-35,-30,-19,-8,-10,-20
6756227938,49,98,66,101,24,17,7,18
6756242846,-8,-83,-82,-79,1,7,2,-2
6756242846,-43,-6,37,25,-1,-7,-3,-8
6756250354,-3,92,-2,-55,-13,-10,-14,-10
6756250354,-5,-71,-8,27,-36,-11,0,-6
6756259286,39,-44,34,35,27,5,3,12
6756259286,-5,-6,8,18,15,9,-1,-4
6756273613,3,6,-16,1,0,4,8,11
6756273613,-20,-21,9,-17,-4,-13,-3,-16
6756280349,6,57,-2,-1,10,13,-28,9
6756280349,21,10,22,10,3,-9,-7,-3
6756287897,-27,25,14,-5,14,14,-8,2
6756287897,8,-16,-33,-40,-2,-8,0,1
6756302832,-4,45,38,45,-19,-13,-16,-14
6756302832,10,14,-27,-17,3,7,19,8
6756310441,-1,-23,23,37,-2,-6,-1,4
6756310441,-3,55,-24,-36,-23,-5,-6,-5
6756319288,-18,14,7,-7,-2,7,1,-6
6756319288,3,-10,-13,-31,15,-7,1,3
6756333612,10,-33,-8,13,-1,6,-1,-8
6756333612,-13,-32,10,-7,11,-2,-17,8
6756340424,-13,-24,-4,5,-2,-17,-27,-10
6756340424,-2,-56,-12,-1,-19,11,18,-4
6756347925,13,-26,10,13,21,15,16,9
6756347925,-1,-4,-7,-14,-15,-12,5,1
6756364294,-1,-9,-10,-9,-6,14,-21,-2
6756364294,-6,-13,-6,-10,-7,-10,-1,-5
6756370422,-4,-10,2,4,-5,-15,-22,0
6756370422,3,8,-8,-9,4,14,13,0
6756379262,-14,1,3,5,-5,-11,16,-6
6756379262,-2,-31,-12,-27,-20,-3,-5,-2
6756393552,5,8,6,14,12,1,4,0
6756393552,1,14,-16,-5,4,-1,-2,-5
6756400462,-10,13,23,-18,2,-3,-8,0
6756400462,-3,6,3,29,7,-4,0,-5
6756407937,3,-1,-7,-12,-7,1,3,5
6756407937,15,51,7,5,-4,-7,-6,4
6756422927,-8,9,-2,2,2,1,10,-6
6756422927,-5,-3,-1,-6,-6,2,-4,-5
6756430463,10,2,-7,-18,-4,0,3,5
6756430463,8,1,12,16,3,-2,3,4
6756439242,-6,0,0,2,-11,-4,8,0
6756439242,4,-7,-1,24,2,1,-1,1
6756453561,0,-4,-11,3,4,-6,9,-4
6756453561,-4,-9,-6,-12,8,5,-1,-3
6756460336,5,7,2,-2,-2,-1,9,1
6756460336,2,-1,-2,2,8,6,6,2
6756467893,-4,-16,-14,-8,-4,-3,-5,-2
6756467893,-9,-13,3,0,6,9,1,-5
6756482829,3,6,-2,0,0,1,13,1
6756482829,-11,-13,2,-9,-8,-4,-6,-7
6756490436,0,-6,3,0,-13,-12,-10,-2
6756490436,1,-4,2,3,6,-4,1,1
6756499268,1,-12,-12,-7,0,11,18,1
6756499268,2,4,-2,-3,-4,-6,-4,-2
6756513534,-11,-12,-7,-5,-2,2,-16,-1
6756513534,-9,-35,-23,-12,-7,-3,36,-2
6756520425,7,13,7,3,-4,-2,1,4
6756520425,4,0,-6,-7,-1,-5,-9,1
6756527890,-2,-12,1,3,0,1,0,-5
6756527890,-6,8,2,2,3,2,-9,2
6756542888,-5,-2,-3,3,-4,-9,-6,-2
6756542888,1,2,9,-1,0,1,1,1
6756550366,-3,1,1,-5,-2,-4,-10,-1
6756550366,5,8,9,7,-1,5,8,-2
6756565302,2,-7,-1,-1,5,2,-6,6
6756565302,-1,-2,-3,-4,-3,-4,-1,-5
6756573583,-2,5,9,3,-1,3,30,6
6756573583,-10,-1,-1,-3,-1,-4,-10,-5
6756588525,3,1,-7,-2,-3,-4,-4,-3
6756588525,4,6,-5,-3,-1,1,6,-1
6756589234,1,-6,2,3,-2,1,-9,2
6756589234,2,-4,-1,-2,-1,-1,-5,-1
6756602909,-8,-2,-6,-7,-6,-3,7,0
6756602909,-5,-14,4,-7,-7,-5,-5,-1
6756610302,-17,3,-5,13,7,7,1,-6
6756610302,5,-4,-1,-16,-1,-1,-10,1
6756625453,8,9,-5,-1,0,-1,-4,2
6756625453,-7,2,4,-6,-6,-2,-3,0
6756633603,21,31,-5,-16,-3,-2,-1,5
6756633603,38,16,38,63,1,0,0,10
6756648486,-52,-54,4,-29,6,-4,-2,-18
6756648486,-27,-11,-36,-39,-3,3,-1,-4
6756649228,16,45,39,31,10,4,15,12
6756649228,23,88,-20,16,-9,-3,-14,6
6756662906,24,-65,48,57,8,5,27,2
6756662906,8,69,-49,-23,7,1,-28,0
6756670352,-37,-58,-17,-34,1,12,6,-10
6756670352,9,-1,80,67,8,3,15,7
6756685438,-11,84,-78,-43,-8,-10,-26,-9
6756685438,-4,76,11,13,-3,1,11,0
6756693604,-7,-100,-18,-71,-14,-12,-12,-8
6756693604,20,-18,-25,-14,6,5,13,18
6756708561,-36,-47,2,-1,-10,-2,3,-12
6756708561,7,-17,-1,-15,-1,3,6,-1
6756709234,4,21,4,28,-13,-11,-4,-12
6756709234,-22,-50,20,12,1,3,7,-3
6756722911,18,33,4,-31,4,1,-5,7
6756722911,24,-15,13,7,2,-5,-9,10
6756730403,7,25,-4,7,3,8,21,6
6756730403,-40,-11,-19,-24,-10,-10,-4,-18
6756745427,18,7,1,-11,-16,-10,-8,-1
6756745427,-1,28,13,43,9,7,10,1
6756753544,2,26,2,-8,3,-1,-10,-2
6756753544,-17,-13,-35,-30,11,2,-10,-11
6756768588,7,19,5,26,-20,-17,-2,2
6756768588,4,-51,13,-9,-14,20,19,0
6756769272,-5,-22,-7,22,8,6,-17,-6
6756769272,-6,-12,-12,-8,13,6,16,6
6756792424,10,-4,10,12,8,7,16,2
6756792424,-3,-39,-6,3,-9,-18,-3,-2
6756794518,-7,0,-5,7,3,-2,-8,-3
6756794518,4,11,-9,-38,-30,-20,-11,-7
6756807279,24,22,16,40,35,22,-3,11
6756807279,-18,-24,-15,-8,7,-4,8,-6
6756813496,5,16,16,18,-7,-5,-5,2
6756813496,-9,-13,-30,-18,-4,-5,-7,-8
6756828524,3,18,1,-26,-8,-11,-4,1
6756828524,6,1,8,11,4,1,-1,5
6756829227,13,12,-1,28,6,8,7,3
6756829227,-14,7,1,-20,16,12,-2,-3
6756842894,-2,-2,-6,-18,-8,1,2,1
6756842894,4,-5,7,3,2,4,-5,2
6756850348,0,7,-6,-17,-14,-17,-5,-3
6756850348,-4,-5,-7,0,-5,-3,-8,-6
6756865294,-10,-21,-8,11,4,5,0,-2
6756865294,5,-1,0,-4,-5,-12,-7,-1
6756873560,-13,-15,4,4,5,2,-1,-2
6756873560,1,3,-2,-2,-6,1,0,2
6756888540,-11,-14,-6,4,-5,-1,1,-5
6756888540,-2,-3,0,1,4,4,12,1
6756889249,6,-5,-11,-18,-3,-2,-3,0
6756889249,9,12,10,10,6,-2,-3,-2
6756902897,-4,-1,0,-8,-3,0,-36,7
6756902897,-3,-1,5,4,-4,-5,3,-5
6756910427,-4,-5,-5,5,-1,0,8,-3
6756910427,-4,-5,-4,-10,-6,-5,-9,-2
6756925413,6,7,-8,2,-3,-10,0,2
6756925413,-5,-14,-1,2,4,10,-1,-1
6756933541,2,4,8,4,-1,0,1,1
6756933541,-11,-4,-11,-16,-9,-7,-18,-4
6756948469,0,-3,-2,2,-4,-7,4,-2
6756948469,7,2,6,2,3,3,1,4
6756949281,6,1,1,4,2,-1,2,1
6756949281,-1,0,8,15,9,7,12,-1
6756962871,0,-3,-5,-3,-3,3,5,1
6756962871,-6,3,-2,-1,3,-1,-4,0
6756970418,-4,0,-9,-8,-4,-4,-8,-2
6756970418,-1,-7,17,4,-2,-1,2,0
6756985372,2,-4,-4,9,6,6,3,1
6756985372,1,-2,6,-1,-4,-3,-6,1
6756993599,-7,-4,-1,-3,-1,-2,-2,-3
6756993599,5,7,3,0,-1,-2,-8,2
6757007911,-4,-1,1,1,-3,-4,4,-8
6757007911,-2,-1,-8,-1,0,-3,2,2
6757016053,-1,5,-3,-7,-3,-1,-5,1
6757016053,3,8,-1,1,-1,0,2,-1
6757022886,-9,9,2,-3,1,2,0,-4
6757022886,-1,-9,-4,-1,-4,-6,-7,-6
6757030333,-8,-1,-2,-4,-3,-1,4,2
6757030333,3,3,-1,-2,0,1,-6,-3
6757045370,-2,1,-3,-4,-3,-4,1,-4
6757045370,-2,0,1,2,-3,-6,-11,-4
6757053582,-8,-1,1,1,8,7,-9,4
6757053582,14,-4,-8,-2,-2,-5,-9,4
6757067898,4,21,5,2,0,1,14,3
6757067898,6,25,17,0,-5,-2,-9,0
6757076082,-30,-64,-7,8,0,-1,-1,-9
6757076082,-22,2,-8,-20,-5,-1,-4,-10
6757082848,36,96,7,-5,9,9,14,17
6757082848,-23,-99,-32,-3,-17,-13,-18,-15
6757090356,37,85,31,17,3,-5,2,10
6757090356,-8,-55,14,5,1,-1,2,1
6757105374,-21,50,0,-5,6,0,-8,-13
6757105374,7,-78,-58,-2,-4,-2,4,3
6757113510,0,63,20,-28,-9,-7,-6,-2
6757113510,10,53,-18,5,0,2,11,4
6757127853,-4,11,38,20,1,2,17,4
6757127853,-19,-59,-14,13,4,1,-19,-9
6757135989,-3,-3,-9,-48,-20,-14,-12,-5
6757135989,15,62,6,16,9,2,-5,1
6757142908,17,-79,-5,22,6,4,-2,-2
6757142908,-31,27,-20,-24,-7,-5,15,-3
6757150331,-13,-48,52,22,1,5,16,-6
6757150331,-4,13,-15,-25,4,3,-9,-3
6757165254,4,-105,-1,-11,-4,0,0,4
6757165254,18,117,22,39,9,5,2,0
6757173507,-2,-62,-16,24,5,-3,-6,-3
6757173507,3,-33,-17,-28,-13,-13,-3,-2
6757189371,-1,-4,3,4,-9,-1,14,-3
6757189371,8,33,33,22,9,7,-1,5
6757196820,-1,-37,-23,-13,8,3,-3,3
6757196820,-9,-15,12,20,5,-3,13,-9
6757210361,-15,1,-23,-2,-13,-3,-7,-3
6757210361,4,1,9,-20,-8,0,-20,0
6757219255,8,9,-19,-10,-12,-3,-1,-1
6757219255,-3,-22,7,20,-6,2,10,3
6757225350,1,5,-1,-4,6,-11,-29,-10
6757225350,-8,-2,8,-11,4,8,52,9
6757234206,4,5,-12,-2,-6,3,6,-1
6757234206,-3,4,-4,7,-5,4,-36,7
6757247780,-15,-11,-11,-23,-16,-8,3,-9
6757247780,15,15,15,18,-8,-13,-8,5
6757256806,2,18,-22,-7,9,5,3,-4
6757256806,-11,-12,1,-25,-2,-9,-2,-4
6757270331,1,14,-14,7,-5,1,-2,2
6757270331,-2,7,9,16,6,12,9,-4
6757279344,-5,7,-6,3,5,-1,-10,0
6757279344,0,-2,0,-13,-12,-4,-3,-4
6757285356,7,15,-12,-15,-10,-8,-5,7
6757285356,-8,9,-3,-30,0,-4,-5,-4
6757294268,-4,22,6,13,-1,-11,-1,-1
6757294268,0,19,-3,11,10,22,9,2
6757307868,-11,-1,1,-7,-5,-7,-9,-6
6757307868,4,4,12,7,7,2,-2,0
6757316768,9,4,-2,11,4,3,8,4
6757316768,-4,-14,-7,12,5,-10,0,0
6757330262,-4,-22,10,-3,-3,-4,-7,-1
6757330262,6,-5,-3,-6,4,-2,-4,-3
6757339265,-5,-9,-2,-13,-4,-2,0,-5
6757339265,-5,-21,7,22,-2,-1,4,-4
6757345271,-4,-5,2,-3,1,0,-4,1
6757345271,-4,-13,-20,-17,0,-1,7,-2
6757354288,8,0,-17,-1,-7,-5,-9,2
6757354288,-10,-18,0,-3,-5,-1,-2,-4
6757367872,-7,2,11,12,1,-1,-20,-1
6757367872,5,5,-1,-6,-2,0,-6,1
6757376781,-5,-7,-2,-1,-5,2,-11,-4
6757376781,1,1,7,0,-3,-3,4,0
6757390434,-1,-4,-5,-3,5,3,0,-1
6757390434,5,11,6,-5,-6,0,-7,1
6757399266,-3,9,7,2,-3,-1,5,4
6757399266,-1,-11,-3,4,11,8,6,-2
6757405356,-3,-6,-12,-10,0,0,4,2
6757405356,3,5,2,-3,-1,-1,0,-1
6757414290,-5,-7,-3,5,-1,-1,-4,-3
6757414290,-4,-6,-13,-16,-8,-3,11,-2
6757427816,2,1,-3,-12,-3,-5,-1,-1
6757427816,-2,-7,7,22,3,-2,-5,0
6757436767,-12,-1,4,-4,6,1,0,-5
6757436767,3,1,-4,-13,-15,-11,-1,1
6757450382,4,-16,1,6,8,8,-23,2
6757450382,-5,-11,-11,-11,-4,-4,3,0
6757459356,6,-5,2,-4,-4,2,5,0
6757459356,-1,4,6,0,-6,-5,-11,-5
6757465249,-1,2,2,5,0,2,0,0
6757465249,-2,7,0,-9,-2,2,3,-2
6757474245,-5,5,-1,1,-1,-2,-4,1
6757474245,1,2,-2,-3,0,1,-1,-2
6757487811,2,1,1,2,-1,-1,5,-3
6757487811,4,-4,-1,-4,-4,-13,-3,-3
6757496755,-10,-12,-4,4,1,21,14,-3
6757496755,9,3,4,3,4,0,21,6
6757510410,-12,4,-1,5,-3,-2,2,-4
6757510410,-4,2,-8,-23,-1,-1,-1,-1
6757519197,12,8,1,17,0,-9,-4,2
6757519197,-12,13,6,14,-2,1,-9,2
6757525390,6,11,-5,-5,1,2,11,-1
6757525390,-14,3,7,-1,-1,-4,-1,-4
6757534235,8,2,-2,-13,2,-1,3,4
6757534235,11,2,0,-1,0,2,-7,2
6757547885,-13,6,-6,8,2,0,4,-4
6757547885,-7,-24,-1,8,-3,-5,-11,-3
6757556728,7,33,12,-10,-3,-3,14,2
6757556728,-5,-57,-20,8,-3,-3,-7,-2
6757570341,34,110,27,-19,-2,2,3,14
6757570341,-70,-41,-38,6,-14,-11,-18,-27
6757579291,3,10,-24,-3,11,6,-6,-1
6757579291,39,20,46,35,9,0,11,2
6757585342,-13,-61,-77,-67,-6,3,-16,7
6757585342,-6,-66,1,-10,-6,-6,-8,-7
6757594289,25,55,46,3,-11,-3,14,8
6757594289,-17,-8,4,-8,-7,-7,-21,-10
6757607820,-16,-31,-33,13,-5,-8,-13,-14
6757607820,43,-7,6,23,7,6,6,24
6757616793,-30,25,41,-20,9,-4,-8,-15
6757616793,-12,-31,-15,-17,0,6,4,1
6757630370,21,-4,29,-7,-4,0,5,4
6757630370,18,25,-15,-19,-2,1,4,8
6757639268,22,103,32,37,2,-3,2,1
6757639268,-23,-36,-5,-6,2,1,-3,-5
6757645276,1,55,12,1,0,-5,0,0
6757645276,5,-16,11,81,7,1,20,3
6757654238,-15,-48,-8,-17,-6,0,-18,-4
6757654238,4,22,24,-1,-17,-4,9,3
6757667856,-3,5,-44,-49,25,5,3,-5
6757667856,22,46,28,17,10,8,32,6
6757676729,-20,-70,-38,-23,-8,-13,-5,-11
6757676729,-4,21,-13,-6,-7,3,-9,4
6757690379,-1,-16,50,90,28,-9,17,-5
6757690379,-6,-12,-12,-26,-6,7,-12,-10
6757699224,5,-50,-27,2,-7,6,28,8
6757699224,3,29,1,0,9,5,-29,-6
6757705350,-12,-48,12,5,-7,2,6,4
6757705350,-8,25,-1,-31,5,0,-26,-8
6757714202,10,-8,-11,5,-4,-2,34,6
6757714202,-1,-7,-8,-16,-10,-14,-4,0
6757727733,-10,-29,7,24,-12,-9,-8,-6
6757727733,-2,-4,-7,-16,10,15,-17,-3
6757736781,-3,-18,-13,-4,0,8,-12,-4
6757736781,4,3,-6,8,15,-1,10,1
6757751050,-7,6,2,-1,-14,-4,-4,-7
6757751050,6,19,3,-17,-16,-12,8,3
6757757770,3,2,2,3,8,-3,-11,4
6757757770,-10,0,-5,-14,6,9,5,-3
6757765364,-1,12,-3,-4,-1,4,9,1
6757765364,6,27,5,-12,-7,-4,0,2
6757774274,-2,7,-2,12,1,-6,-14,-3
6757774274,-1,30,-9,8,4,-5,1,0
6757787844,-7,-13,-2,-16,-15,9,1,-4
6757787844,3,8,7,1,7,-10,-10,2
6757796783,-5,-17,2,6,-7,-6,-9,-7
6757796783,-9,-8,11,6,0,-1,-8,2
6757811706,5,-20,-3,1,-6,-5,-4,-1
6757811706,-4,-15,0,-39,2,17,-2,-3
6757813311,-15,-35,-13,17,10,-18,1,-5
6757813311,9,-9,-9,-11,-21,-4,-23,1
6757825336,-4,-13,10,8,-4,5,-6,-3
6757825336,-2,1,-8,1,3,-3,7,1
6757834241,6,-4,-5,-6,-4,-1,-18,0
6757834241,-11,-10,15,-2,-4,-7,8,-4
6757847894,-10,-17,-12,-21,-4,-10,-1,-4
6757847894,11,23,9,6,-8,-6,4,4
6757856728,-2,-7,-12,-17,2,6,-3,1
6757856728,-14,-41,-25,-3,-14,-6,-5,-12
6757871687,8,13,-4,8,6,0,4,4
6757871687,-5,-2,4,4,-8,-2,4,0
6757873321,-1,-6,-8,-15,-4,6,-1,-1
6757873321,0,12,9,7,1,-3,1,-3
6757885367,10,10,6,18,3,-1,4,2
6757885367,-15,-9,-21,-25,-5,-5,-39,-8
6757894295,1,-4,10,3,-6,4,21,3
6757894295,5,12,-4,-2,10,4,4,4
6757907840,5,-13,-11,-8,-1,-2,-3,-4
6757907840,-3,-12,12,27,6,7,-7,4
6757916748,7,5,0,-5,-2,-4,-4,-2
6757916748,-3,4,0,-7,1,0,-5,0
6757931073,2,-7,-3,-3,-3,-3,9,0
6757931073,-4,10,4,6,-1,1,12,-1
6757937857,-4,17,0,-4,1,1,6,-5
6757937857,9,2,-7,-2,5,-2,7,8
6757945341,-3,-10,3,2,-6,-3,2,-4
6757945341,8,-3,9,9,4,3,3,2
6757954271,-8,-7,0,1,-1,-3,-7,0
6757954271,0,2,-10,-5,3,4,16,-1
6757967726,4,15,5,2,0,-4,-14,0
6757967726,-10,8,-4,2,-2,-6,4,-4
6757976723,-1,-4,-3,-4,-4,-3,-4,-7
6757976723,-3,2,-3,0,-1,-1,2,4
6757991016,0,7,-3,-4,2,8,-5,1
6757991016,-1,-2,-6,-3,-4,-3,6,1
6757997813,-7,-8,5,6,-1,-5,-7,-2
6757997813,8,1,1,0,-1,0,-18,-2
6758005340,-20,14,-3,-8,-1,0,14,-2
6758005340,21,-1,-16,-3,-1,-1,17,3
6758014227,-12,6,4,5,-3,5,6,2
6758014227,-5,4,15,7,-1,-3,-8,-8
6758028284,2,-2,-15,1,-2,4,26,0
6758028284,-10,-8,-4,-3,1,-5,-44,-2
6758036756,14,2,-17,-10,-6,4,8,9
6758036756,12,13,25,12,12,2,18,0
6758050953,-3,9,-18,12,-5,-7,-6,0
6758050953,-15,-29,-45,-3,1,1,10,-12
6758057810,0,-3,3,-5,6,4,2,2
6758057810,31,66,7,-13,0,2,-13,6
6758065391,-49,-22,-4,13,-12,-12,-17,-19
6758065391,27,86,61,36,2,3,5,10
6758074273,-5,23,-52,-81,-8,-8,-19,-5
6758074273,16,15,83,31,4,8,18,7
6758087808,-38,51,12,5,-11,-10,-14,-6
6758087808,16,-24,-60,3,-11,-12,0,-4
6758096730,3,123,43,-24,-7,-4,0,-4
6758096730,-13,-99,-25,9,0,2,-15,-7
6758111005,39,-15,-1,-10,26,21,18,15
6758111005,-20,33,37,17,-4,4,5,-3
6758117697,-2,-23,-8,-7,11,3,17,9
6758117697,-30,-29,-34,-22,-24,-12,-8,-13
6758134159,34,-19,1,16,-2,-3,-8,7
6758134159,-22,21,-3,-29,-4,-6,-1,-7
6758135707,1,-18,14,-2,-6,-2,-13,-2
6758135707,-17,7,7,-22,-4,3,10,-2
6758147832,10,15,43,6,-1,-2,-6,-1
6758147832,12,-9,44,-11,11,2,6,-3
6758156718,-13,-41,-20,33,-4,-5,22,0
6758156718,-1,-10,-66,-41,-5,-4,-2,0
6758170990,5,-9,6,-24,-5,-3,0,1
6758170990,-3,-46,1,9,2,3,-7,-2
6758177835,-1,-21,-6,8,8,7,-20,-8
6758177835,-5,11,-25,7,10,1,2,-2
6758193275,10,-30,18,18,3,2,2,1
6758193275,-7,-30,-4,-15,-7,-21,-11,-11
6758201759,3,-4,-2,30,1,35,45,19
6758201759,1,-7,4,-7,-15,-6,1,0
6758207747,-8,-34,-8,0,-2,-2,-7,-3
6758207747,5,5,-9,-7,8,4,28,5
6758216757,-14,-13,-3,0,-4,-20,-32,-7
6758216757,5,5,2,-1,-9,-4,14,-1
6758231033,-7,18,-15,-5,1,0,-5,-2
6758231033,-2,-4,-15,-6,-12,0,-3,-2
6758237828,13,2,26,30,25,2,-13,1
6758237828,-7,10,-4,-25,4,11,8,-1
6758254170,-7,10,-1,26,6,-11,-20,-4
6758254170,3,12,6,12,-2,-8,24,6
6758255724,2,4,3,-23,-24,3,-18,-5
6758255724,-1,20,-6,5,-3,-18,-7,-8
6758267870,3,14,-10,-11,3,-2,7,1
6758267870,-6,-13,3,-1,20,5,-4,-1
6758276731,0,-21,-2,13,-16,-10,-7,1
6758276731,7,0,-14,-2,0,11,18,3
6758291048,-5,-17,-10,-31,-16,7,1,-3
6758291048,-3,5,3,13,-6,-13,-6,0
6758297687,-6,-14,-6,-2,20,-8,-4,-5
6758297687,8,9,9,25,8,21,-3,2
6758314063,-8,14,14,12,7,1,-4,1
6758314063,-4,-8,-11,-9,-15,6,-6,0
6758315607,3,15,2,-23,-5,-9,-4,-4
6758315607,-2,-10,14,3,-5,-7,-14,0
6758327817,-2,1,-10,-7,2,2,0,0
6758327817,4,8,-4,1,2,6,-1,0
6758336732,-8,-13,-9,6,-4,-3,-16,-1
6758336732,1,1,0,13,5,3,7,-3
6758351032,11,7,-1,-30,2,-4,22,6
6758351032,2,12,-2,-2,-2,0,-12,4
6758357835,-9,-14,-7,0,-3,-3,3,-7
6758357835,-9,3,18,1,-3,-8,2,-5
6758374201,8,-2,-1,10,-3,-3,-11,1
6758374201,-14,27,6,-15,1,13,-1,2
6758375748,0,-2,-3,14,0,-4,4,-2
6758375748,-12,-8,-10,2,0,-4,-6,-1
6758387740,-2,4,10,-2,-4,-6,-10,-6
6758387740,6,-21,-2,-6,-1,-1,-1,-2
6758396728,3,6,8,11,-5,-10,-7,-2
6758396728,-5,2,-2,2,4,6,-33,2
6758411073,-1,-7,-6,-7,-2,10,9,0
6758411073,-8,-16,-3,-1,-4,-2,5,-5
6758417768,1,-4,-2,1,-1,0,5,-1
6758417768,1,-4,-7,-1,0,-9,-6,-2
6758434144,-4,0,-2,-2,1,0,4,-1
6758434144,0,-4,-7,4,-3,-2,-1,2
6758435625,0,5,9,5,3,-6,5,-1
6758435625,4,4,-6,-6,0,4,8,2
6758448336,1,-2,-1,1,-3,-1,-6,-2
6758448336,-4,-5,-1,-2,1,-4,-28,-1
6758456758,-8,7,-3,-4,-2,4,-2,3
6758456758,1,-2,-4,3,-4,-4,13,0
6758471059,0,-6,7,-2,1,-5,-7,2
6758471059,9,-4,1,9,4,4,-1,-2
6758477872,-2,0,-13,-7,0,9,0,-2
6758477872,11,4,7,-4,-3,-7,-14,-4
6758494105,-22,4,14,5,-1,0,-5,-4
6758494105,4,-2,-7,-2,-4,-9,7,0
6758495674,11,9,31,3,-3,2,2,2
6758495674,-5,1,5,-4,-4,-12,-10,-8
6758507808,2,19,-20,-16,-13,-10,42,6
6758507808,-8,-21,0,9,6,3,-45,-1
6758516720,4,21,5,15,5,0,-5,10
6758516720,35,102,25,25,12,11,41,15
6758531037,-16,-46,0,3,8,5,-17,-8
6758531037,-38,-49,-62,-38,-19,-7,-12,-13
6758537717,21,84,35,4,-11,-8,3,0
6758537717,-37,-128,-46,-7,11,8,-26,-12
6758554129,13,101,15,3,2,6,5,3
6758554129,23,5,14,-9,7,3,33,7
6758555606,-15,-24,-47,17,-1,1,-3,-8
6758555606,-7,-44,13,-45,-9,-9,-8,-5
6758567829,-31,-89,-12,22,-11,-10,-12,0
6758567829,2,48,32,33,-17,-2,9,-2
6758576669,9,2,-3,-22,20,7,0,7
6758576669,12,20,-9,4,5,5,5,3
6758591062,15,-10,0,3,-5,2,-6,-3
6758591062,-15,-12,-27,-44,-10,1,17,0
6758597830,-3,2,33,40,-8,-11,-1,0
6758597830,14,45,2,-4,1,1,30,2
6758614175,2,5,-9,-30,-7,-4,-5,1
6758614175,8,-18,3,43,-6,6,-3,4
6758615674,0,-37,-13,-16,25,8,-2,-5
6758615674,-6,-20,-6,-1,-3,-9,2,-5
6758627809,6,-6,-7,15,11,11,2,-1
6758627809,3,0,12,8,29,4,-42,-16
6758636688,-1,-29,-6,-19,-12,8,63,18
6758636688,-6,-4,-8,5,-6,0,-34,-1
6758651087,5,0,-8,-8,-12,-18,-8,0
6758651087,-7,11,-1,-10,-10,-10,9,-8
6758657806,7,-16,-21,1,-3,4,-24,-8
6758657806,-4,-7,-9,-13,-3,-12,-3,1
6758674154,-7,6,15,5,1,8,6,-2
6758674154,2,-2,-10,-7,5,7,8,3
6758675596,-10,-11,-7,-18,-17,-15,-34,-8
6758675596,3,-1,-3,22,-2,0,27,2
6758687770,2,20,17,7,3,0,-9,-4
6758687770,7,34,8,1,5,-11,-3,4
6758696672,13,28,-6,28,9,10,-7,2
6758696672,-10,17,0,-30,-31,-2,-14,-5
6758711050,7,3,-9,-29,5,-8,-8,-1
6758711050,6,0,9,14,21,-3,17,5
6758717752,-4,-12,13,43,-30,-19,-7,-10
6758717752,-7,-9,-8,-47,20,13,-2,-1
6758734182,14,4,-25,1,5,1,-19,4
6758734182,-4,-8,28,-2,-3,21,29,5
6758735753,-7,-11,-27,-15,-7,-10,-8,-6
6758735753,-9,-6,-2,-2,-16,-15,-16,-2
6758747725,-3,1,-2,21,22,0,-7,-7
6758747725,-3,-4,2,-22,-10,-6,-8,-2
6758756712,-11,-7,-1,12,6,8,7,-5
6758756712,-12,-24,-14,-6,-21,-11,-4,-10
6758779132,6,17,16,-11,-12,-2,16,6
6758779132,-2,-11,-8,-1,-10,-8,-15,-6
6758780660,1,-1,-9,-30,7,6,12,4
6758780660,-22,12,6,-2,-7,-11,-13,-13
6758794061,-9,-12,4,10,1,-1,1,-7
6758794061,5,2,-18,-22,-3,0,-10,9
6758795677,-1,-5,-2,-7,-3,-1,5,-1
6758795677,14,8,4,29,21,1,5,10
6758807737,1,3,-6,0,-11,5,-21,-2
6758807737,-9,-2,14,14,-5,-8,8,-5
6758816736,-10,-10,-10,-13,3,-9,-21,-4
6758816736,-1,5,-5,6,1,8,-5,-1
6758831040,-17,-17,8,3,-2,1,11,-6
6758831040,15,-3,0,0,0,-4,13,7
6758837812,8,7,-1,-9,7,1,-8,-2
6758837812,15,11,5,19,8,10,27,3
6758855493,-14,-4,8,-3,-2,4,1,-2
6758855493,-2,-3,-7,0,-1,-8,-27,-3
6758857110,0,-15,8,-3,-9,1,33,5
6758857110,2,-18,1,8,3,-3,-5,-2
6758867767,20,-13,-16,-3,2,0,11,9
6758867767,-28,-25,-12,-5,1,2,2,-7
6758876672,1,-12,9,-1,0,-1,-20,4
6758876672,6,5,4,7,9,5,-1,4
6758890987,-1,7,-1,-7,-3,4,4,2
6758890987,3,2,-29,4,-5,-10,-11,-5
6758897803,1,2,14,-9,0,2,8,-6
6758897803,-14,6,6,5,4,5,1,8
6758913487,2,-2,-13,-9,-7,-9,-11,-5
6758913487,7,9,10,6,-2,5,1,3
6758920336,-1,11,-6,-7,-2,-2,7,1
6758920336,10,10,-3,-5,-1,1,-8,0
6758927844,-4,3,8,20,10,1,3,-1
6758927844,4,10,-5,2,6,4,2,2
6758936672,9,3,7,0,-5,-4,-13,-2
6758936672,-9,10,10,0,-6,-14,-9,-7
6758950967,-2,-24,-15,-6,-8,-5,-7,1
6758950967,13,39,-4,-19,-6,-4,-6,0
6758957807,-28,-47,-24,-7,-1,-3,-5,-4
6758957807,0,66,19,20,0,-3,1,-1
6758973452,9,-30,-11,-10,3,5,-13,4
6758973452,16,13,6,26,1,6,8,1
6758980355,-19,-26,8,-14,0,-4,-6,-5
6758980355,15,-24,2,3,-8,1,-1,6
6758987763,1,93,-4,-16,-10,-7,-4,-4
6758987763,-25,-63,-29,-5,19,10,6,-6
6758996735,-3,5,8,-5,-4,-1,-13,-2
6758996735,-7,-18,15,15,-8,1,2,0
6759010954,13,-11,14,41,-6,-9,22,0
6759010954,12,31,32,-18,-16,-9,-18,3
6759017814,-17,-4,-85,-8,5,5,7,-2
6759017814,-4,-81,-23,-11,15,6,3,-2
6759033985,-6,-17,-13,-42,-8,-7,-6,-4
6759033985,18,53,16,9,-5,-4,8,7
6759040289,-25,-4,24,35,6,-3,-1,-6
6759040289,10,35,-17,-24,-1,2,-3,6
6759056672,-3,27,30,36,-1,2,2,2
6759056672,-19,-54,4,18,1,-1,2,-3
6759058244,17,17,-11,-59,-17,-8,-10,-1
6759058244,-4,-9,-13,0,-10,6,10,-1
6759071068,-2,-9,-5,-12,10,-4,-4,-7
6759071068,-3,17,16,26,7,9,15,0
6759077753,6,-9,33,17,-3,-5,3,0
6759077753,1,-16,-15,-1,3,-8,-6,-2
6759093493,-2,-45,-23,-21,-9,0,-8,-2
6759093493,-4,10,14,5,-8,-6,-8,-6
6759100281,5,-33,-16,5,14,12,35,1
6759100281,0,0,9,-6,-1,-3,-10,-3
6759116506,3,11,6,-2,-7,-3,-5,7
6759116506,-2,-7,-11,-7,6,-4,7,-4
6759118153,1,18,13,11,-4,-7,-8,-1
6759118153,-6,5,-2,2,1,2,-5,-3
6759130701,-1,-6,-7,-1,4,12,6,-5
6759130701,-16,-23,3,-16,-18,-2,-7,1
6759139160,3,14,8,10,21,-1,-6,0
6759139160,0,3,4,5,3,2,6,2
6759153389,-4,12,-1,20,-3,-7,-4,-6
6759153389,1,0,-12,12,1,-8,-1,-4
6759160181,12,23,-11,-55,-11,3,-2,3
6759160181,-5,2,-21,2,18,7,12,0
6759176667,2,9,8,23,5,-1,0,2
6759176667,0,3,7,5,6,1,-4,-3
6759178259,-11,-26,1,5,-10,-2,-5,-5
6759178259,-4,-3,-7,18,4,-14,-7,-6
6759190890,-13,-21,-7,-56,-19,-5,-1,-5
6759190890,9,10,-5,-11,4,6,4,6
6759197817,7,23,-1,-2,-3,-1,-3,-3
6759197817,-12,-6,8,-2,-4,-4,-4,-6
6759213444,0,-4,13,30,5,3,6,2
6759213444,4,-13,-34,-49,-12,-12,-10,-2
6759220284,6,17,18,32,4,8,6,8
6759220284,2,9,2,3,-10,-4,-11,-5
6759236543,1,5,-8,6,2,4,17,6
6759236543,1,-7,-20,-17,-4,-3,-5,-2
6759238128,6,-3,-12,11,4,-5,-7,-1
6759238128,-14,-19,12,-6,-12,-2,-1,-5
6759250294,3,7,2,3,7,-1,-6,-4
6759250294,-2,-9,4,1,3,7,5,3
6759259167,-1,-3,-2,6,-12,-17,-9,-5
6759259167,-5,-2,6,-4,-4,14,26,7
6759273235,0,13,-7,-16,4,6,6,0
6759273235,-9,-17,6,6,0,0,-4,-7
6759281734,6,3,8,9,5,11,-2,5
6759281734,-4,0,-6,-5,0,-7,-10,-2
6759296690,0,-15,-6,-7,-2,-5,-9,-1
6759296690,4,8,2,5,-6,-5,8,-1
6759298296,-4,16,14,11,7,11,6,-1
6759298296,10,7,-5,-12,-2,-7,-1,3
6759310161,-4,-8,-4,-1,-1,-2,-6,0
6759310161,1,-2,-9,-4,-6,-10,-13,-6
6759319207,-8,-2,-1,-6,-5,-3,-1,-4
6759319207,1,-17,15,7,0,-6,13,5
6759333398,-6,-24,-7,-6,-4,9,1,-6
6759333398,2,-2,0,0,1,2,5,0
6759340275,7,2,-11,-6,-5,-2,-12,0
6759340275,12,7,-3,0,2,3,-7,-1
6759356516,-11,2,5,1,2,-11,-6,0
6759356516,-5,12,0,-3,-3,0,12,-5
6759358252,-6,-3,-5,2,-3,1,-21,-3
6759358252,10,4,3,-2,-2,-7,-7,2
6759370238,6,6,1,-1,1,2,21,4
6759370238,-12,-4,9,9,-2,3,-1,3
6759379148,-2,-16,-38,-26,-7,-7,-6,-5
6759379148,-2,7,12,34,2,-1,-11,-6
6759393464,-6,11,-4,-30,-2,-1,-6,-2
6759393464,-2,1,12,10,1,1,-10,-3
6759400315,3,-3,-3,6,-3,-3,14,-1
6759400315,16,44,-10,0,-4,-1,-2,2
6759416595,-9,-28,7,-6,3,4,-3,-5
6759416595,-4,8,25,6,1,1,2,6
6759418146,10,-37,-4,6,-9,-10,-4,4
6759418146,-6,92,20,-5,9,7,-3,-6
6759430299,-23,-75,12,6,-8,-7,-11,-12
6759430299,6,88,-65,-43,1,3,6,6
6759439173,-1,-24,0,6,-1,-2,-1,1
6759439173,0,-28,28,34,13,5,2,-5
6759453496,-11,-56,2,15,1,-1,0,0
6759453496,-2,37,-1,-15,-4,-2,-4,-2
6759460308,17,37,15,24,-3,-4,-5,15
6759460308,-27,10,-4,-59,-17,-7,4,-6
6759476618,-7,-22,-14,13,4,0,-13,-2
6759476618,4,3,22,1,-5,-4,-1,-11
6759478143,0,-31,-24,8,20,11,-5,0
6759478143,-2,-22,-16,13,-4,2,-7,0
6759490312,5,77,-2,-25,3,-2,0,4
6759490312,-5,-65,-16,-12,-8,1,3,-1
6759499140,3,87,44,38,-1,-5,3,-2
6759499140,8,11,-25,-42,-8,-10,-6,-1
6759513475,-14,38,-2,11,8,8,2,7
6759513475,14,12,31,33,1,0,15,7
6759520266,-5,26,-2,-60,2,-4,-18,-9
6759520266,-7,-36,-4,36,-5,-1,4,1
6759536613,6,-6,-18,-4,-2,-11,-14,-8
6759536613,0,-25,-1,-6,1,3,-3,-1
6759538115,-19,-30,0,-12,-11,-9,-1,-5
6759538115,1,-15,6,33,2,9,2,-3
6759550224,28,-2,0,-35,-7,-10,1,3
6759550224,-9,-28,7,0,10,15,4,5
6759559183,-11,-40,2,10,6,3,19,-7
6759559183,-1,-21,-6,-20,-3,-3,-20,-4
6759589120,7,24,5,24,-7,-11,10,0
6759589120,-3,-37,-7,1,1,2,-17,2
6759590605,-11,2,-18,-28,-15,-7,1,-2
6759590605,6,-5,4,-3,-4,-4,2,-5
6759596648,1,-11,-4,-1,-4,-7,-8,1
6759596648,3,9,-7,0,-3,-8,-7,-1
6759598148,-7,-10,7,8,5,10,-6,3
6759598148,-4,-3,1,-9,-5,-7,7,0
6759610225,-8,-3,-3,4,6,10,-1,-6
6759610225,2,-2,5,31,2,-15,-4,-6
6759619123,-1,-7,-16,-28,-7,9,-2,1
6759619123,-2,3,12,6,8,3,0,1
6759633508,2,9,-8,-6,-6,1,3,0
6759633508,-7,-5,-13,-19,-4,-6,-10,-6
6759640268,9,18,14,14,6,0,2,1
6759640268,7,4,-34,-25,2,-29,8,4
6759656606,-3,9,11,57,-7,26,-5,-9
6759656606,2,3,9,1,22,11,8,3
6759658146,-1,7,-6,-16,-9,-15,-1,-5
6759658146,5,-8,-9,-24,-8,-2,2,5
6759670269,5,16,-11,-8,-18,-17,-8,-2
6759670269,-12,-12,-4,10,-1,-8,-9,-9
6759679165,3,1,1,-1,-1,7,3,-2
6759679165,-7,-18,7,9,8,9,15,2
6759693346,0,5,0,-21,-15,-15,-5,-2
6759693346,3,-3,-4,-8,-2,2,-4,-1
6759700269,6,-2,-5,-3,12,6,13,6
6759700269,-4,-2,0,3,-7,0,-5,-6
6759716572,3,17,2,7,14,9,4,6
6759716572,-1,5,0,-1,-4,-8,5,-3
6759718102,-4,3,7,10,2,0,-7,1
6759718102,6,6,1,-4,-9,-8,-37,-4
6759730224,-13,-2,-3,-11,7,17,22,2
6759730224,1,2,1,1,-9,-10,-11,-4
6759739143,-8,-9,-3,0,-5,-4,-12,-5
6759739143,2,1,-6,-9,1,8,0,1
6759753357,7,7,2,10,5,-10,-6,1
6759753357,-7,-9,-26,-2,-4,2,-9,-1
6759760285,1,-5,-5,2,-1,-1,6,-3
6759760285,-6,-11,1,-1,3,3,2,-1
6759776653,0,-18,15,-2,2,-4,-1,-1
6759776653,1,-26,-13,-4,-2,0,16,5
6759778142,3,1,20,0,-5,-3,1,-4
6759778142,-9,0,-42,2,-3,-5,-5,-3
6759790123,-4,-4,-6,-7,2,12,20,1
6759790123,-9,-5,8,-1,-1,0,-4,-4
6759799151,2,9,-18,0,-6,-6,-1,0
6759799151,-4,1,-1,-1,4,9,8,-5
6759814111,7,0,19,-3,-3,-6,5,1
6759814111,-5,3,-12,-1,-1,0,-4,0
6759820258,4,0,3,2,0,1,4,-1
6759820258,-1,-6,6,4,-2,-1,-2,-3
6759835280,-3,5,-6,-3,4,2,-11,8
6759835280,9,14,6,4,-3,1,0,1
6759842772,-9,8,3,-9,-4,-5,-8,-2
6759842772,16,20,11,4,-2,3,7,4
6759858335,-25,-54,-40,-21,-2,-5,-13,-15
6759858335,20,65,48,27,4,7,9,6
6759859154,-4,40,34,4,-3,-2,1,1
6759859154,-40,-80,-35,4,-6,-10,-14,-9
6759874170,70,108,113,-5,17,6,7,12
6759874170,-70,-93,-93,-55,-20,-15,-13,-30
6759880241,-18,52,33,20,6,4,21,4
6759880241,-9,-9,44,53,17,7,-1,8
6759895290,22,75,21,-35,-9,-12,-7,4
6759895290,27,114,17,-35,3,5,-14,4
6759902785,6,-68,-16,1,1,10,27,-3
6759902785,14,45,-92,-14,-8,1,-44,15
6759918447,-27,-82,9,22,-3,9,34,-4
6759918447,1,67,12,-2,1,-5,0,2
6759919147,-18,-9,25,43,-1,-15,-34,-23
6759919147,20,17,1,-75,-2,-4,12,3
6759934148,2,-12,42,13,1,15,28,11
6759934148,15,-20,21,25,1,5,14,12
6759940158,5,30,-15,-19,-16,-2,14,-5
6759940158,2,17,47,8,4,-8,6,-7
6759955224,-4,82,-39,15,-6,-17,-38,-9
6759955224,-56,-103,-26,-24,-9,-4,14,-13
6759962804,23,62,15,-11,-1,-5,-21,7
6759962804,15,34,35,39,-11,-5,-3,0
6759978401,-23,-13,-85,-61,-15,-5,-9,-14
6759978401,23,-5,56,12,25,12,0,8
6759979090,3,-44,-65,2,18,2,-3,3
6759979090,-9,-21,25,3,-4,4,4,-2
6759994112,-13,-46,-16,13,-2,-3,12,-4
6759994112,-5,-25,-23,-20,-2,-6,-11,-6
6760000248,13,-40,4,-3,-6,-4,-21,2
6760000248,-5,-20,-9,-7,1,6,36,3
6760015128,-10,-26,6,18,-1,-8,-20,-8
6760015128,12,-4,11,13,-6,9,-22,4
6760022582,3,0,-5,-12,-5,-11,-14,6
6760022582,-8,6,6,-7,2,1,-8,-6
6760038236,-3,-1,-4,11,15,5,-2,-2
6760038236,-1,2,-4,5,-2,-2,-6,-2
6760039057,-11,-10,-8,-9,-5,1,-2,-7
6760039057,0,3,-11,-7,6,6,23,0
6760054106,5,-9,0,2,-13,-8,-8,4
6760054106,14,-3,3,20,4,-9,2,-2
6760060068,-9,4,34,16,3,0,-1,-8
6760060068,0,-3,17,-25,9,4,28,6
6760075103,-5,1,-7,-1,0,0,-20,-2
6760075103,11,29,9,20,7,3,15,6
6760082599,-1,1,4,-2,-4,1,17,-1
6760082599,-7,4,5,6,-1,-3,-12,-6
6760098323,4,-1,-10,-3,-18,-7,-3,-1
6760098323,-3,-5,13,-4,-1,-3,-1,-3
6760099060,-3,-21,-19,-8,-2,-4,-5,-2
6760099060,-5,-16,-14,-22,-3,-14,-14,-7
6760114121,0,-24,-11,4,2,-5,-3,0
6760114121,6,-1,-2,20,-12,4,6,-1
6760120113,-15,-3,-8,-7,4,9,5,-2
6760120113,0,3,-8,-3,-5,-9,-10,-3
6760135111,2,-7,4,0,-4,-3,6,1
6760135111,-5,-13,13,9,8,2,5,-2
6760142594,-1,-19,-19,-18,6,4,4,3
6760142594,0,1,-4,6,-10,-4,-14,0
6760158273,12,27,4,6,15,9,12,5
6760158273,1,2,-1,-3,-4,-2,23,3
6760159080,-9,0,-10,-11,-17,-11,-10,-5
6760159080,-6,-6,6,15,4,9,9,1
6760174131,-3,2,7,10,13,8,11,0
6760174131,4,9,1,-7,-1,-2,-8,0
6760180095,4,4,6,-1,-2,-3,-4,4
6760180095,4,4,-4,-6,-6,0,11,-2
6760195117,-5,-9,1,-4,-3,-4,-12,-2
6760195117,-10,-16,-12,-2,1,-2,-1,-5
6760202604,3,-1,1,3,-1,-3,-8,0
6760202604,-4,-14,1,3,-2,-5,-4,-6
6760218214,-6,-20,3,0,-1,1,12,2
6760218214,-3,-5,-7,-5,-4,-7,-25,2
6760219046,4,-5,-3,0,5,7,17,4
6760219046,-2,-6,-2,2,1,2,-5,-4
6760234108,6,8,0,0,0,4,1,2
6760234108,-4,9,-4,-6,-8,-10,-8,-7
6760240108,-1,1,6,-5,-5,-2,22,1
6760240108,-13,-6,-4,2,2,7,-6,0
6760255097,6,5,1,-3,-4,-6,-43,2
6760255097,3,4,-3,-4,-2,-8,4,-7
6760262578,-8,-6,-5,1,3,11,2,-2
6760262578,0,-1,-8,-3,-5,-1,-14,6
6760278383,-4,-14,-8,-3,-3,-10,6,-5
6760278383,1,-7,0,-4,-1,2,-5,1
6760279173,7,4,1,-2,-2,3,-11,-5
6760279173,-11,8,3,2,-1,-4,-4,-1
6760294117,-5,-2,12,0,1,-1,5,-3
6760294117,12,-2,-6,-3,-5,1,-2,4
6760300199,7,37,37,16,0,-3,-4,-3
6760300199,-25,-88,-72,-29,-7,-6,-10,-13
6760315116,24,59,10,31,0,3,2,9
6760315116,10,-15,30,-29,5,-1,4,7
6760322718,-23,-38,-71,-3,-19,-12,-14,-17
6760322718,-24,17,22,33,11,1,0,-6
6760338399,0,-6,13,-43,6,-2,-10,-1
6760338399,-27,-21,-60,11,1,3,-7,-20
6760339137,30,48,64,49,-11,8,4,15
6760339137,7,67,13,6,20,-1,3,-8
6760354131,-15,-11,-12,-1,-4,-4,10,5
6760354131,-3,-39,27,-9,-15,-10,2,0
6760360160,-11,-45,-40,-5,-4,0,-22,-5
6760360160,33,37,29,-1,6,8,7,8
6760375190,-29,9,30,-9,12,-3,-18,-11
6760375190,13,91,2,16,-7,0,29,7
6760382734,18,-37,7,-16,10,11,24,15
6760382734,-10,-31,-44,-57,-17,-24,-23,-14
6760398355,-12,11,-26,-20,10,13,12,-19
6760398355,12,37,61,54,-3,4,-7,18
6760399245,13,59,73,-36,-14,6,54,19
6760399245,3,-54,-23,41,-2,-12,-16,0
6760414132,11,25,3,4,-21,14,79,11
6760414132,-2,78,-26,15,3,-11,-16,-15
6760420118,-21,-20,-32,-29,-13,-8,-77,-14
6760420118,8,-11,21,-15,-1,-8,6,16
6760435260,-3,2,7,10,-4,2,-33,-4
6760435260,6,-48,-26,-17,-5,4,4,12
6760442745,11,14,20,5,15,-13,-13,6
6760442745,5,20,-33,4,-8,5,18,-8
6760458446,-6,-1,-26,-11,1,-12,-35,-10
6760458446,6,-14,41,3,9,7,-14,1
6760459117,-30,-32,-15,15,2,-20,-35,-18
6760459117,0,10,-16,-13,6,33,5,4
6760474137,4,-52,-5,16,-6,-6,7,4
6760474137,2,-9,-6,-18,-1,5,15,-3
6760480273,-4,-30,-9,3,-3,-10,14,-8
6760480273,-11,7,-1,-4,-8,1,-8,5
6760495256,6,-19,-17,5,2,-5,-8,0
6760495256,-22,-4,14,-12,4,-4,3,-6
6760502760,-2,-18,-4,0,6,-4,5,-5
6760502760,18,25,48,20,-2,12,-30,11
6760518382,-2,-1,-51,-13,-7,-4,5,-2
6760518382,-8,-9,-1,24,6,-4,-14,-3
6760519068,9,38,1,-32,7,10,18,6
6760519068,-1,-9,25,11,-6,-7,4,-9
6760534070,-1,6,0,-19,0,-2,-5,1
6760534070,-1,-13,16,8,-9,-6,-9,1
6760540150,-10,8,11,14,23,17,22,-1
6760540150,0,6,10,1,-2,-4,8,-4
6760555188,-6,-15,11,22,13,0,-4,-2
6760555188,5,-3,-24,-25,-16,1,9,2
6760562706,1,5,-11,3,1,-3,-4,-1
6760562706,3,12,6,-13,4,-3,5,3
6760578393,8,5,25,35,-7,-3,-5,4
6760578393,-13,-19,-24,-35,-2,10,1,-7
6760579116,-6,0,6,22,8,-2,7,2
6760579116,4,-5,4,-28,-10,-3,-1,-3
6760594139,6,2,2,5,-14,-16,-2,-3
6760594139,-2,-1,-18,-23,15,4,-20,-2
6760600105,-12,-15,-2,22,-9,0,-8,-3
6760600105,2,23,27,18,14,14,-3,-1
6760615231,-3,-18,-11,-18,0,3,1,-1
6760615231,-4,-27,8,10,-10,-9,-2,3
6760622774,-1,4,0,-1,4,-5,-15,-1
6760622774,5,9,7,14,-10,-11,3,-1
6760638346,-1,4,11,-3,-4,1,-11,0
6760638346,0,-3,-13,-12,-5,-5,2,-4
6760639246,8,-1,-11,-11,-3,0,0,-1
6760639246,-14,-11,-5,3,1,-3,17,-2
6760654117,3,5,16,7,3,1,-3,-1
6760654117,-15,-5,6,1,4,-1,3,-5
6760660224,-6,-2,-18,-13,-6,-1,3,-3
6760660224,8,-4,-9,-5,2,2,2,1
6760675230,-5,-20,-10,-6,-3,-3,6,-1
6760675230,5,1,8,13,3,1,0,3
6760682733,-7,8,6,-5,-1,2,-2,-6
6760682733,-10,-12,-5,5,2,-1,-2,-4
6760698407,9,-5,52,-4,-1,1,15,3
6760698407,-3,9,7,1,-1,-1,-1,-2
6760699067,2,3,-49,-15,-4,-13,-1,2
6760699067,-7,2,8,-5,-5,4,-18,-4
6760714118,-12,-7,9,2,4,9,4,-7
6760714118,0,7,4,-1,2,0,-2,0
6760720137,5,-3,7,3,-1,-1,5,0
6760720137,9,-10,-19,1,-1,-5,2,7
6760735233,-7,-5,-24,-11,-4,-6,-8,-3
6760735233,5,0,-4,1,0,0,-2,1
6760742677,0,-1,9,0,-1,5,11,-1
6760742677,0,-1,24,9,-2,-2,5,-2
6760758415,-9,10,-10,-2,2,3,-3,2
6760758415,2,23,-13,0,1,-2,1,-1
6760759131,-9,-12,16,5,-7,-8,-8,-1
6760759131,21,27,-11,-17,-11,-6,0,7
6760774154,-22,24,-17,5,16,13,2,-5
6760774154,20,-47,46,24,21,15,14,10
6760780253,3,60,-4,3,-3,1,-4,-3
6760780253,0,-13,11,16,-9,-9,-3,-3
6760795283,-4,-28,-105,-50,-17,-17,-15,-10
6760795283,-4,16,-18,33,-5,-5,2,4
6760802759,-11,87,31,-11,6,1,0,-1
6760802759,-16,-49,51,-18,-10,-8,-4,-11
6760817710,-1,-79,-68,-38,-13,-2,-2,5
6760817710,4,108,23,10,4,0,-2,0
6760825125,28,-25,11,50,-4,0,-2,-2
6760825125,3,10,-52,-12,13,9,26,7
6760834111,13,71,88,8,1,1,-27,2
6760834111,-22,-82,-6,-26,-10,-8,-7,-16
6760840146,-15,-35,-10,6,-1,2,-2,1
6760840146,5,-6,-26,-20,4,-2,-2,-7
6760855268,16,-17,34,24,3,5,15,7
6760855268,-17,-13,-40,-15,-7,-3,-3,-2
6760862832,-8,-55,12,-3,-4,-6,-5,-7
6760862832,-3,81,12,27,3,1,-3,7
6760877755,10,-1,-9,-9,7,-4,7,-1
6760877755,-2,2,35,-12,-8,-5,0,-2
6760885256,-6,-23,-31,13,-3,0,4,-1
6760885256,-6,-24,-12,-15,0,-3,-4,-3
6760894061,5,5,20,27,-5,-5,-4,-8
6760894061,-36,-16,2,4,2,-6,-3,-6
6760900119,8,-24,-30,-41,-7,-3,4,5
6760900119,13,54,29,4,-12,-1,5,-8
6760916581,-20,-23,-12,21,22,10,1,4
6760916581,18,-6,17,2,1,1,1,0
6760923406,-7,-69,-3,-19,-5,-1,-14,-1
6760923406,-19,-1,-45,-8,-9,-6,-10,-11
6760937791,4,-7,3,-4,-9,1,10,1
6760937791,1,-23,-22,-9,-3,-4,-6,-4
6760945166,16,35,20,0,0,3,12,8
6760945166,3,-36,9,5,1,-2,-9,0
6760954218,-6,48,7,-2,-3,-2,-7,-5
6760954218,2,-12,-33,2,1,1,3,1
6760960060,-9,0,9,-24,0,1,0,-3
6760960060,1,-28,-26,13,1,-1,-1,3
6760975113,-2,15,12,1,-1,2,6,2
6760975113,8,40,16,-17,-3,0,-1,0
6760982715,4,3,-15,-3,3,0,0,-2
6760982715,3,7,-2,2,6,6,2,4
6760997735,0,-12,8,-3,-6,-8,-3,0
6760997735,0,6,-11,1,-3,2,-1,-2
6761005195,5,-4,6,6,5,-6,-2,-3
6761005195,-5,-18,15,16,-3,-1,2,3
6761020894,0,11,-4,-12,-2,1,-6,-6
6761020894,12,-7,-3,6,2,5,0,10
6761021550,-9,25,-16,-8,-1,-3,5,-1
6761021550,-20,-1,12,-8,4,-2,-5,-4
6761035076,10,7,13,17,-3,7,2,-2
6761035076,16,5,-20,-23,-2,-4,0,5
6761042696,-9,0,-4,5,4,4,1,-2
6761042696,11,14,10,5,2,-5,-5,3
6761057709,1,-10,-1,-8,1,-7,3,4
6761057709,-7,11,-1,30,0,0,-8,-5
6761065211,1,5,-2,-7,-1,1,1,0
6761065211,4,-12,0,-8,0,-1,0,1
6761080894,10,7,-1,-6,3,5,3,1
6761080894,8,-15,7,-8,-7,0,1,7
6761081565,-5,-4,0,23,9,0,-6,-4
6761081565,4,-17,-10,-3,11,5,4,2
6761095225,-2,-10,14,32,-7,-3,1,4
6761095225,8,1,10,-47,13,1,2,0
6761102622,-4,0,-18,0,-18,-16,-6,-1
6761102622,0,-18,2,-15,-2,11,4,0
6761117639,-19,-20,-7,10,-2,-17,-15,-10
6761117639,-4,-19,-18,1,-4,-4,10,-2
6761125231,23,29,19,8,-3,0,-7,5
6761125231,2,20,3,-7,2,7,0,-3
6761140786,-10,-4,9,-15,-9,-9,1,-7
6761140786,-13,-5,6,18,-5,4,-37,-1
6761141575,-5,-3,-2,-10,4,-3,4,-2
6761141575,6,13,6,16,-5,2,4,1
6761155231,2,2,-8,-2,4,-1,-10,-3
6761155231,-8,10,0,3,3,2,20,-2
6761162645,-9,-14,-4,-5,-2,2,1,0
6761162645,-8,-18,-6,1,3,2,0,1
6761177736,-5,-9,-1,-2,0,-3,11,-12
6761177736,0,-6,-5,-5,-2,-7,-3,5
6761185132,-1,-4,7,0,-1,10,-5,-2
6761185132,-9,-20,3,-6,-9,-15,-3,-7
6761200791,6,-6,-1,-5,0,-1,2,4
6761200791,-2,-8,-7,3,-4,-5,8,-10
6761201557,-8,1,1,2,3,8,7,4
6761201557,-8,-15,-11,-4,0,-2,2,-2
6761223330,-2,2,-3,-5,-2,3,-6,3
6761223330,0,12,-2,3,-2,-4,-4,-2
6761224141,8,1,-2,-5,-2,-1,0,3
6761224141,2,0,-6,1,0,-1,4,-2
6761237665,-2,5,1,-2,-3,0,1,2
6761237665,12,-3,-1,3,-2,-11,-1,-1
6761245150,-11,-10,1,-4,1,19,-8,-7
6761245150,-9,5,-3,0,-5,-11,-29,1
6761260885,6,5,-5,1,1,6,-1,3
6761260885,0,-5,6,2,-1,-2,-2,3
6761261615,-1,5,-26,-2,-3,-4,0,0
6761261615,14,7,-7,-4,0,-6,-9,-1
6761275155,-3,13,23,3,-5,2,-7,-3
6761275155,-22,-6,-46,1,2,6,2,-5
6761282713,4,34,-12,-16,-1,-3,7,5
6761282713,-13,-19,2,9,-3,1,8,0
6761297679,20,-26,-18,18,15,-1,6,5
6761297679,2,30,40,8,-4,-4,2,4
6761305171,-9,23,-23,-16,-8,-2,-2,-9
6761305171,-36,10,-4,-10,-4,-8,-2,-10
6761322191,4,-33,-1,26,-1,-2,-16,2
6761322191,21,34,45,-22,7,8,18,11
6761322974,7,40,-29,2,-9,-12,-4,1
6761322974,6,32,17,-43,-12,-7,-1,-3
6761335108,-23,-44,-68,-10,2,-1,0,-6
6761335108,16,-20,22,33,-1,5,-6,-1
6761342671,11,65,7,-25,7,0,5,4
6761342671,-15,16,-30,20,-1,4,6,1
6761357718,-11,23,12,-17,-7,-5,0,-12
6761357718,-2,-5,-13,1,4,3,11,6
6761365183,9,-17,19,9,-7,-5,6,3
6761365183,13,-42,8,25,-2,-1,-8,2
6761380775,5,50,31,-14,9,0,5,2
6761380775,-23,-10,-27,-6,-7,2,-7,-8
6761381623,2,-19,41,33,21,1,-7,-3
6761381623,4,42,0,-16,3,7,6,1
6761395163,-4,10,2,-17,-13,-5,3,5
6761395163,3,9,-35,-6,-13,-9,-19,-8
6761402623,-13,-36,5,-10,-4,-1,-4,-4
6761402623,7,-21,-3,24,21,4,2,1
6761417644,10,-7,14,13,-7,-3,8,5
6761417644,-19,-21,-11,-9,-3,-1,-5,-7
6761425149,12,-3,5,2,1,7,8,3
6761425149,5,-25,24,14,4,1,0,-3
6761440815,2,-23,-23,-13,-6,-3,-6,-3
6761440815,-18,-31,2,-12,-6,-3,2,-2
6761441666,-9,-37,6,-3,-7,-7,-9,-5
6761441666,12,28,3,2,4,3,11,1
6761455164,7,33,9,7,3,-2,-13,1
6761455164,5,-23,-6,-12,-2,4,35,5
6761462610,-9,-10,9,6,-3,7,5,-3
6761462610,-2,-11,-15,-8,-5,-11,-2,1
6761477696,15,21,-1,-14,0,9,3,-3
6761477696,-15,11,-9,6,-2,-7,-14,-6
6761485854,-2,-10,5,0,-4,-5,2,-1
6761485854,-2,3,0,1,5,-4,4,-1
6761500859,-8,-7,11,20,-8,-5,-2,0
6761500859,14,11,2,-4,8,10,-5,-1
6761501568,-10,-21,-6,4,1,-9,0,-4
6761501568,-3,-1,-7,-24,-14,-10,-12,-1
6761515202,3,11,-12,-16,-5,-7,-4,1
6761515202,-1,3,7,10,10,7,-1,-2
6761522597,0,5,7,4,1,-4,-5,-1
6761522597,-3,-6,-8,5,-6,-6,-5,-4
6761537738,-11,-9,-1,2,2,1,-10,-1
6761537738,1,3,-1,-6,-22,-10,-1,-2
6761545856,-1,-6,-9,-6,12,9,-1,-1
6761545856,9,8,10,24,-10,-3,-3,1
6761560841,-10,-13,-19,-35,18,6,14,0
6761560841,-1,-4,12,3,-5,-8,-11,-3
6761561583,0,-4,-10,10,3,7,-4,-3
6761561583,1,11,4,-16,-5,6,-2,4
6761575238,-15,-4,0,-5,-8,-6,-2,-7
6761575238,12,15,11,14,6,2,4,7
6761582718,0,-6,-17,-31,-12,-10,-7,-1
6761582718,4,-5,4,15,2,3,1,-1
6761597608,5,30,26,33,6,10,7,4
6761597608,-6,-1,-16,-25,0,-6,-7,-5
6761605892,4,-10,22,30,-7,-6,-4,-2
6761605892,-18,-12,-14,-31,-5,0,-6,-10
6761620886,7,0,-2,3,0,-2,1,1
6761620886,-5,-13,13,21,-3,-2,-6,-4
6761621495,9,30,-9,-2,10,2,3,4
6761621495,1,-3,-4,-2,-7,-4,-3,-2
6761635182,-2,-3,-2,-6,-3,-2,-2,-3
6761635182,-3,-3,-6,5,5,2,6,-2
6761642667,-4,-2,10,1,-4,-2,-2,0
6761642667,-3,-7,-2,-2,-1,1,3,-3
6761657663,0,-9,-3,-2,-3,-4,-12,0
6761657663,-7,-12,-12,-8,-4,-4,-8,-5
6761665904,-4,-9,-8,-6,-5,-2,1,-1
6761665904,-3,1,-7,-3,0,0,-1,0
6761680859,0,-9,-1,5,-3,-2,-1,2
6761680859,-1,-8,-2,-8,1,-1,-1,-3
6761681522,-6,-12,-7,-2,-3,-3,-7,-2
6761681522,-1,-11,-2,2,5,2,7,-8
6761695182,6,-6,-2,0,1,11,0,11
6761695182,-5,-13,-12,-11,-4,-11,-10,-8
6761702709,1,-9,-3,-4,-3,-5,2,1
6761702709,2,-2,1,-1,0,7,13,7
6761717674,-8,-1,-2,-3,-4,-7,-2,-6
6761717674,-1,14,2,1,2,-1,4,-2
6761725806,7,-4,0,-2,-2,0,-8,0
6761725806,-5,5,0,-2,0,-5,-12,-2
6761740185,4,-5,5,-3,-3,6,-8,-1
6761740185,12,8,6,3,3,-18,-12,3
6761748363,-9,16,7,5,-1,20,17,-2
6761748363,-10,-26,-33,-16,0,-3,-15,3
6761755182,15,70,26,1,-8,-1,2,0
6761755182,-21,-61,-17,5,-6,-5,-4,-9
6761762675,-9,91,7,13,14,4,3,0
6761762675,0,-5,55,-3,0,2,-5,-3
6761777709,-20,-37,-87,-13,-13,-6,0,-6
6761777709,9,-11,-34,-39,4,5,-4,4
6761785865,26,38,18,37,-4,-3,3,8
6761785865,-14,-115,-40,-40,-6,-3,-1,-3
6761800185,4,38,54,56,13,-4,0,-1
6761800185,4,69,-6,11,-1,11,10,8
6761808409,-13,-49,-38,-32,6,-2,-10,-10
6761808409,3,58,-19,6,3,3,6,4
6761815096,2,-11,32,20,-7,-4,-3,-1
6761815096,-13,-7,-5,0,-5,-4,-2,-3
6761822683,5,-18,12,-18,-2,-3,-6,-1
6761822683,16,34,17,28,3,7,14,5
6761837744,-5,-7,-26,-20,-1,-3,-1,1
6761837744,-6,1,3,4,1,7,-14,-4
6761845861,10,-1,0,-12,-10,-13,8,-2
6761845861,-3,30,10,16,2,2,-15,-4
6761860203,-18,10,-6,-11,-2,-4,2,-8
6761860203,0,9,9,6,4,11,32,6
6761868364,10,17,-4,-8,-7,-8,-12,0
6761868364,-1,24,-3,-13,-10,2,-1,1
6761875210,0,-23,6,-6,9,2,9,-5
6761875210,14,16,-10,-22,-8,-6,-13,-2
6761882716,-29,-46,5,23,-1,-4,-3,-6
6761882716,-2,-21,3,11,-1,-6,7,-2
6761897643,10,-4,15,-5,12,8,-7,3
6761897643,-21,-70,7,0,4,0,-1,-2
6761905870,-1,-19,-6,-14,-6,1,0,-2
6761905870,11,-5,6,13,5,-6,-3,4
6761920185,5,18,-12,-13,-9,3,2,0
6761920185,9,12,-1,12,3,2,-1,-2
6761928387,8,-6,12,-7,-13,-7,-6,9
6761928387,-1,12,2,-6,-3,-6,0,-3
6761943288,-5,-21,-12,-10,-6,-4,-26,1
6761943288,9,21,17,22,19,14,25,2
6761944082,-19,2,-18,-9,0,-4,-8,-9
6761944082,8,-7,5,-18,-15,-1,-8,1
6761957559,-3,-6,6,14,6,-2,12,-4
6761957559,2,6,2,14,3,-2,-9,0
6761965850,10,-7,-7,1,8,4,0,-1
6761965850,-19,-6,-4,6,2,-4,1,-4
6761980119,-13,-18,-4,3,-4,-1,7,-3
6761980119,-1,11,11,-19,-13,-17,-11,-4
6761988248,12,3,-9,11,7,10,13,5
6761988248,8,4,-8,-35,-5,3,-3,3
6762003295,13,12,2,13,16,6,5,7
6762003295,-9,-8,22,36,-2,-4,-5,-5
6762004045,-7,-16,-4,3,-15,-10,-14,1
6762004045,-9,-11,-2,-35,-2,1,5,-6
6762017702,-1,-9,-2,0,5,6,6,3
6762017702,6,7,-5,-12,-6,1,1,0
6762025787,-18,-16,11,7,-4,-5,-3,-8
6762025787,0,9,2,0,-1,-1,8,1
6762040093,-4,-13,-14,-16,-12,-10,-5,-5
6762040093,-4,-3,-14,-18,-4,3,-4,-1
6762048266,2,4,3,9,-4,-3,2,2
6762048266,8,15,-12,-4,0,-1,-4,-1
6762063362,8,10,-2,-7,-2,-2,-2,3
6762063362,-8,-1,-5,-2,-8,-10,-8,-4
6762064039,-5,-6,-17,-14,-1,-11,-6,-2
6762064039,1,-13,-3,14,3,14,4,-1
6762086549,7,6,-8,-8,-2,-6,-2,-3
6762086549,5,7,-7,-3,-5,-2,-29,8
6762087242,0,-1,3,1,4,2,-1,-2
6762087242,-6,6,-2,11,-2,-13,2,-5
6762100065,-7,-4,7,-5,-7,2,8,-1
6762100065,11,7,3,5,6,-2,16,7
6762108386,-4,-4,6,-3,4,14,-6,-6
6762108386,5,-9,3,13,2,0,-7,3
6762123355,-12,-11,-2,0,-2,-1,-12,-2
6762123355,-1,1,-10,-5,-4,-8,1,-3
6762123997,5,4,6,-5,-1,-1,4,5
6762123997,-3,-4,6,6,0,-11,-27,-3
6762137659,-6,-13,-8,-8,-4,4,5,0
6762137659,-1,-1,4,-1,2,6,3,0
6762145906,-4,-13,-9,-7,-3,-9,3,-1
6762145906,-5,-4,-1,8,0,5,-3,-5
6762160156,1,-8,2,-3,-2,-7,-3,0
6762160156,-1,-17,-4,-4,-1,3,4,-1
6762168356,-9,1,6,2,1,0,-4,-3
6762168356,6,11,-3,4,0,-6,0,2
6762183257,7,9,-3,-2,0,1,4,-2
6762183257,5,21,3,2,-5,-2,3,-1
6762184001,-16,-3,1,-1,2,2,-1,-2
6762184001,3,17,15,2,1,0,4,0
6762197660,-1,8,2,2,-8,-4,-7,-1
6762197660,16,2,1,1,5,0,-7,2
6762205771,-6,-18,-4,28,-3,-3,0,-3
6762205771,1,31,-29,-52,-10,-2,0,-2
6762220153,-9,-73,6,26,15,7,6,1
6762220153,-14,82,9,-31,0,-1,-1,-7
6762228359,58,100,16,7,4,2,8,14
6762228359,-41,-81,-5,67,8,2,5,-4
6762243296,8,33,-71,-103,-28,-10,-6,-8
6762243296,-30,-104,34,38,11,4,0,3
6762244117,-24,-1,13,-7,-16,-8,-6,-11
6762244117,24,19,-7,-26,8,1,-3,3
6762257685,6,43,-16,5,6,2,-1,-1
6762257685,15,33,15,33,-1,6,9,4
6762265781,-14,-6,-6,-20,-5,-9,-9,-6
6762265781,4,-30,0,8,-4,2,-2,-4
6762280184,-8,-10,42,9,1,-1,10,10
6762280184,8,-16,-35,-12,0,-5,2,-7
6762288363,-18,-10,3,3,-1,4,-22,-2
6762288363,-1,21,5,-1,-2,-4,4,-1
6762303389,9,13,0,17,0,-7,-10,-5
6762303389,0,30,-5,-12,-3,-1,-3,-3
6762304042,1,24,-17,-20,-3,-2,10,2
6762304042,-16,29,11,6,-2,-4,-9,-5
6762317705,1,13,16,30,-10,-6,10,3
6762317705,-9,-22,-30,-43,-19,-11,-15,-5
6762325852,5,-42,-16,-1,6,9,18,1
6762325852,3,-37,5,-20,9,5,3,1
6762340162,2,-17,23,23,21,6,0,0
6762340162,1,-22,-14,9,-1,-4,2,0
6762348335,-11,-39,-3,-15,-13,-8,-25,1
6762348335,9,8,0,-10,-16,-4,17,2
6762363284,-14,-31,2,18,8,-1,-5,-3
6762363284,1,-20,7,4,3,7,-2,-2
6762364024,11,-1,-8,-20,9,2,-1,1
6762364024,2,6,-17,6,-5,-7,-5,1
6762377579,-4,11,9,-19,-9,-3,-6,0
6762377579,2,1,0,7,-7,-3,1,-5
6762385838,-2,15,5,15,16,3,13,3
6762385838,-14,3,4,6,3,1,-2,-4
6762400124,3,-14,-15,-4,-11,-6,-1,0
6762400124,-8,1,4,-11,-3,-3,-5,-5
6762408329,-2,-23,-17,-5,4,3,-4,-3
6762408329,12,11,-2,-13,-8,-8,-3,1
6762422610,-8,-4,-1,3,-3,4,0,0
6762422610,-8,-11,0,5,-6,-8,-9,-5
6762431567,4,19,14,-13,4,5,16,1
6762431567,-18,-15,8,20,10,16,5,-4
6762437673,16,20,-3,0,-1,-6,-1,3
6762437673,5,19,6,7,-5,-8,0,0
6762446548,-9,-12,-6,-7,-20,-18,-10,-9
6762446548,12,28,10,15,3,-1,8,5
6762460152,11,20,-1,-12,-5,1,5,2
6762460152,-4,-12,-5,-2,10,7,3,4
6762469039,-1,0,-1,13,2,-2,-4,-4
6762469039,-1,-1,-16,1,-16,-13,-12,-4
6762482654,-7,-10,-4,-7,4,-2,-2,-4
6762482654,1,8,6,2,3,-9,1,-1
6762491543,6,-6,3,15,-2,16,6,4
6762491543,5,-12,-14,-7,9,4,2,3
6762497637,-15,-3,-3,-4,-5,-4,-15,-8
6762497637,-8,-7,-7,-15,-5,-1,-8,-5
6762506565,7,5,3,3,-1,-8,0,3
6762506565,4,2,6,-2,-2,-3,-5,-1
6762520177,-10,0,-3,-1,1,2,5,-3
6762520177,5,-1,6,8,5,2,-12,5
6762529069,6,2,-1,-1,0,-1,2,1
6762529069,-2,-7,4,-2,-2,-2,5,-4
6762542620,2,5,8,1,1,-2,1,2
6762542620,4,5,-5,-4,0,0,-3,1
6762551542,-2,8,2,3,-3,-5,0,-3
6762551542,-1,-1,1,-3,3,3,2,1
6762557610,-2,-7,2,-1,-2,-4,-2,-3
6762557610,-3,-11,-2,-4,-6,-10,-17,-3
6762566567,-4,-12,-8,-1,1,10,-3,0
6762566567,-3,-6,-1,-4,2,0,1,-4
6762580095,19,-10,-5,-5,0,3,-9,2
6762580095,-5,-1,3,6,8,8,27,2
6762589026,-16,-9,-6,-4,-5,-8,-5,-3
6762589026,8,10,3,2,-2,-8,-14,1
6762602510,-5,1,-2,-1,0,7,10,0
6762602510,5,10,-3,-4,-2,-1,-2,-6
6762611515,8,1,0,1,1,-2,-4,0
6762611515,-18,9,8,7,2,2,19,-3
6762617644,-8,-6,-4,-3,-2,-8,-21,-1
6762617644,21,20,14,14,-1,5,5,6
6762626593,14,8,1,-18,0,-4,0,-1
6762626593,-28,4,6,37,-1,2,-5,1
6762640114,-11,-35,-28,-12,3,-2,-3,-7
6762640114,-6,-1,0,-13,-10,-1,0,0
6762649056,-1,-4,-6,-2,-3,-2,6,-1
6762649056,30,36,10,-28,10,4,-6,6
6762662647,1,-5,27,12,3,6,5,-2
6762662647,-6,44,-59,15,-12,-4,-3,-6
6762671517,11,-85,33,-6,19,4,4,0
6762671517,-25,15,-49,-27,-12,-2,-2,-1
6762677656,-3,-58,-12,-13,-4,-3,-1,1
6762677656,-7,-33,4,-18,4,2,2,-3
6762686544,24,88,32,25,0,0,3,9
6762686544,-4,-39,3,22,15,4,-7,-1
6762700144,-11,4,20,-7,3,0,-1,-8
6762700144,17,13,14,20,-13,-6,32,4
