timestamp,emg1,emg2,emg3,emg4,emg5,emg6,emg7,emg8
7192639167,-5,-15,7,20,27,16,11,1
7192639167,1,5,0,-1,-3,-2,-5,-1
7192644732,2,15,6,-3,-13,-4,-2,-2
7192644732,-3,-11,-11,-7,-5,-7,-5,-2
7192645397,5,1,-1,6,2,1,3,3
7192645397,-5,1,-3,-4,0,1,-3,-4
7192647000,-6,-11,-6,-7,-2,-2,-2,1
7192647000,-3,-5,0,8,-1,-3,-4,-3
7192657628,2,15,0,-8,-6,-6,-7,-2
7192657628,-3,-5,-1,3,2,-2,0,3
7192669089,3,-8,-2,-7,-6,2,0,-5
7192669089,5,6,7,6,8,3,4,2
7192672658,3,10,0,-4,-5,-9,-3,0
7192672658,-14,-10,-4,-5,2,0,-7,-7
7192687628,-7,-12,-4,0,3,-3,11,0
7192687628,-4,4,0,-6,-4,1,3,0
7192696338,5,-4,-2,-2,-4,-3,-14,1
7192696338,8,2,2,0,-5,0,31,6
7192720197,-8,7,3,5,6,1,-5,-2
7192720197,-2,2,1,0,3,-1,2,4
7192722000,-7,-17,-6,-7,-9,-3,-10,-6
7192722000,7,7,2,1,-3,-3,-13,2
7192726556,2,1,0,3,5,1,3,-2
7192726556,0,-2,-1,-3,-4,-3,4,-3
7192773285,-4,4,0,-3,-3,-8,10,-2
7192773285,-8,-21,-3,-1,0,16,7,-10
7192774236,6,3,0,1,1,7,-22,10
7192774236,-4,12,-3,-5,-6,-10,-8,-6
7192774938,-3,-14,1,6,7,12,4,15
7192774938,-10,-6,0,1,0,-7,-6,-4
7192777481,9,17,-2,-4,-4,2,-8,0
7192777481,-5,-12,-2,-1,-1,-7,-1,-11
7192786306,-16,-14,-3,-4,-2,12,-6,-66
7192786306,16,43,5,-3,0,10,26,72
7192792464,20,8,4,5,3,-6,6,6
7192792464,-14,-14,3,6,5,-5,-4,-2
7192801312,11,5,3,-2,-8,8,1,8
7192801312,-17,-8,-11,-4,-2,-4,-8,-31
7192814992,14,50,2,-11,-10,0,12,5
7192814992,-24,10,-5,3,4,-1,-9,-2
7192823824,4,-11,-16,-18,-11,-18,-15,-7
7192823824,-9,-73,14,20,7,1,-3,-9
7192829993,-28,33,-40,17,10,-2,6,-1
7192829993,3,66,12,4,-16,-3,0,-14
7192846315,-8,-54,-15,21,21,-1,-3,17
7192846315,17,-8,-26,-60,-15,-8,-10,-10
7192852484,-1,-23,9,14,-4,1,10,1
7192852484,-18,-87,11,-20,-3,6,2,7
7192861291,22,17,14,-21,-4,6,6,10
7192861291,6,-20,-40,-13,1,-6,-4,3
7192874945,4,-21,2,-10,3,-2,6,-7
7192874945,7,25,8,5,-13,3,-4,-5
7192883787,-20,73,19,-16,-19,-14,14,11
7192883787,-4,-37,-12,13,9,10,-23,-10
7192889991,-11,26,21,22,18,5,4,-3
7192889991,18,37,-14,0,4,-2,8,12
7192906363,-3,17,2,-5,-17,0,2,-5
7192906363,-3,60,8,18,1,5,-14,-5
7192912347,-23,56,-5,-4,21,-4,-11,-3
7192912347,32,105,6,-8,-26,3,16,15
7192921277,17,56,-24,-8,3,-24,-15,1
7192921277,-23,5,21,13,-2,14,21,2
7192934877,6,-67,1,-17,-19,-19,-18,-3
7192934877,-4,-93,-6,3,-1,39,27,-2
7192943921,1,-61,1,19,34,10,2,5
7192943921,7,-12,-9,-11,18,-27,-5,-2
7192949845,-6,-72,18,10,-65,8,-1,-10
7192949845,1,-52,11,36,40,4,3,2
7192966324,-6,-39,-15,18,24,6,-2,3
7192966324,5,-12,1,-18,-2,-6,1,-3
7192972389,1,-24,-17,-14,-4,-17,-6,-3
7192972389,-11,-30,-1,-8,-32,-18,-16,-11
7192981349,3,-1,6,-13,-38,-7,-10,-1
7192981349,7,12,19,15,11,-6,2,-1
7192994936,-5,2,10,-8,7,7,8,0
7192994936,-5,1,-16,-8,12,1,-8,-1
7193003921,-11,-11,12,-15,6,1,0,-7
7193003921,-11,7,5,-12,-31,2,2,-6
7193026309,-10,-24,-12,-34,2,6,-1,-2
7193026309,10,8,-3,10,17,-2,1,5
7193027817,-4,-2,-12,-1,5,2,-12,-1
7193027817,4,18,9,18,-8,8,13,5
7193032409,-2,-4,-1,-4,8,4,4,-3
7193032409,4,-16,-19,-16,-1,-5,-9,2
7193041311,2,23,-8,6,-17,-31,-8,3
7193041311,9,20,6,-4,-5,12,-4,-7
7193054952,0,9,4,16,21,7,4,4
7193054952,-2,7,-9,-5,2,-8,-3,0
7193063805,0,5,4,3,-9,3,0,0
7193063805,2,9,9,11,8,-2,2,2
7193077438,3,12,-12,-10,-6,-10,-12,-4
7193077438,-5,-3,2,-8,-8,-22,-16,-1
7193086271,-7,0,8,7,8,32,17,0
7193086271,1,9,-1,0,2,-8,-7,-3
7193092453,-2,-6,4,1,-3,-19,5,-8
7193092453,-12,-10,-5,-9,-2,6,-25,6
7193101309,0,-15,-7,3,3,13,-4,-11
7193101309,2,-4,-6,-3,-4,-7,14,9
7193115001,13,-5,-1,4,2,0,17,3
7193115001,-5,-6,5,-1,-1,5,1,-8
7193123790,5,-1,0,-1,2,-12,11,2
7193123790,6,7,3,-1,-6,-3,2,7
7193137418,-2,-31,-11,-4,-3,-4,-16,-2
7193137418,-2,-6,1,-1,3,0,4,16
7193146291,-1,7,2,-4,-7,-3,6,-23
7193146291,12,6,-1,1,1,-3,-6,-4
7193152498,-8,25,3,3,0,3,-7,1
7193152498,-3,-7,1,-3,-5,-12,6,3
7193161296,0,2,0,2,3,4,-4,6
7193161296,-14,-32,0,3,1,-6,-10,-9
7193174934,19,8,11,-4,-2,3,2,6
7193174934,-5,-8,-13,-15,-8,-5,-1,-10
7193183787,-2,2,-9,15,-4,-12,-8,3
7193183787,-10,57,-1,3,-1,1,-4,-9
7193197426,-30,-4,9,0,6,7,6,-6
7193197426,11,-37,-10,10,9,11,10,1
7193206322,61,91,29,2,4,-2,-1,12
7193206322,-68,-108,-35,4,-11,-10,-9,-15
7193212440,-9,36,-32,-69,-17,-8,-11,-7
7193212440,-10,17,-15,40,26,13,8,-5
7193221290,-6,-38,1,-7,-14,-4,0,6
7193221290,63,36,23,16,9,0,1,10
7193234911,-28,23,8,13,1,1,-2,-8
7193234911,-21,9,4,-12,-7,-3,-1,-8
7193243921,6,-37,-7,2,-5,-4,0,5
7193243921,7,36,20,7,5,5,1,2
7193257393,29,21,-7,-4,1,4,3,9
7193257393,5,-45,-4,-15,6,-5,-18,-12
7193266352,-24,2,1,0,-3,6,-1,3
7193266352,-5,-35,-5,-13,-8,-4,-7,0
7193272348,5,36,5,18,-8,-5,1,-2
7193272348,17,63,9,-16,-16,-13,3,6
7193281309,-4,-2,-14,-24,-11,3,-17,-7
7193281309,10,45,1,9,9,6,4,0
7193294850,6,-25,-3,10,13,-22,-6,8
7193294850,-25,14,8,1,-26,26,11,-9
7193303819,-20,-39,-3,-5,17,5,8,-1
7193303819,-4,-21,-8,-5,-5,-17,-4,-2
7193326278,25,-10,3,-2,-22,6,-4,-2
7193326278,18,11,6,9,21,-6,2,6
7193327810,-29,-27,-4,-9,3,-5,-7,-6
7193327810,-16,-19,-13,-13,-18,-4,4,-6
7193332431,-12,-23,11,34,13,-2,2,-2
7193332431,15,-16,-24,-42,-13,-8,-1,1
7193341334,6,10,4,6,-1,6,2,0
7193341334,7,10,-1,-4,7,-2,-3,3
7193354874,-10,-28,-6,-4,3,5,-4,-5
7193354874,-9,1,5,-1,-13,-8,-2,-6
7193363830,-3,-2,6,6,-1,-9,-3,-4
7193363830,-4,0,1,1,22,15,2,-3
7193377460,-4,-14,-1,6,1,5,5,-1
7193377460,7,3,14,21,8,1,-3,0
7193386281,0,16,-3,-4,0,-4,4,3
7193386281,-5,-3,-5,-4,-5,-5,-2,-4
7193392441,-7,-20,-14,-7,5,-2,0,-1
7193392441,1,4,-1,-9,-1,3,9,0
7193407280,-3,-5,3,9,-5,6,-15,-7
7193407280,-4,-1,-13,-41,-6,5,4,2
7193414821,9,5,-6,8,-2,-1,2,2
7193414821,-9,1,4,-7,-13,-18,-1,-2
7193423818,-4,-3,4,13,-1,-11,3,-3
7193423818,-4,-9,-15,11,9,21,4,1
7193437413,5,5,7,-13,-4,4,1,4
7193437413,2,1,-1,12,1,-4,-6,-3
7193446316,8,20,-7,-9,-1,-5,1,2
7193446316,-2,9,8,10,-6,-9,-4,-1
7193452386,-6,-6,7,3,-5,-6,-3,-4
7193452386,6,15,4,8,4,5,-2,3
7193467422,4,-2,-6,-5,-2,-12,-4,0
7193467422,3,3,3,4,-5,-2,1,1
7193474911,-15,-22,-4,-8,4,11,8,-3
7193474911,-4,-11,-8,-5,0,-7,-7,2
7193483817,-2,2,3,5,3,5,-2,-2
7193483817,-2,-1,2,-6,-6,-6,8,-1
7193497310,12,9,0,0,-1,-1,-2,0
7193497310,-11,-9,8,6,6,3,3,-3
7193506288,-4,2,-3,-1,-4,-8,2,-3
7193506288,-5,0,-4,-3,-1,-3,6,-4
7193512404,-2,1,5,6,3,0,-33,2
7193512404,18,6,-1,1,-1,-4,16,-2
7193527428,-14,-10,-2,-7,1,2,-15,-2
7193527428,-4,-21,0,1,-2,-1,8,-8
7193534931,-7,-20,-4,-1,-2,-5,2,1
7193534931,-2,-13,2,-2,-4,-16,-35,-1
7193543828,1,-16,-1,0,4,31,10,3
7193543828,16,6,1,-3,-4,-10,-1,17
7193557412,0,7,-3,-1,0,-1,-34,-35
7193557412,-11,-7,-2,1,-1,3,2,-3
7193566332,0,9,6,1,0,-3,8,3
7193566332,-9,3,-2,-2,-5,-6,-13,-6
7193572442,4,4,-2,-8,-3,2,15,10
7193572442,9,11,15,-7,0,5,6,6
7193587428,17,-3,-2,34,1,-8,-4,-4
7193587428,-12,-6,-16,-41,-9,2,3,5
7193594919,-26,-21,-41,-6,-5,-10,-6,-12
7193594919,7,73,23,3,-5,0,-1,-2
7193603808,-26,-82,-53,-27,7,7,13,-1
7193603808,6,48,3,9,-6,-8,-16,-4
7193617325,29,-5,61,34,10,11,18,15
7193617325,-25,-22,-44,-34,-4,-4,-3,-4
7193634468,9,38,24,-18,-17,-11,-6,-6
7193634468,7,-14,-14,-6,6,4,1,11
7193635404,-6,57,38,9,-8,2,5,-1
7193635404,-15,-27,-31,11,15,7,4,-6
7193647432,13,57,-5,-7,6,3,2,2
7193647432,17,27,-4,-12,-13,-8,-11,-5
7193654937,-43,22,17,43,0,-9,-1,-1
7193654937,17,-40,-20,-11,11,5,3,0
7193663773,-12,-13,-8,6,-11,-9,-4,-1
7193663773,2,17,13,0,3,1,-1,-3
7193677407,-4,-11,9,11,-19,-9,-3,-3
7193677407,-6,9,-37,-23,9,7,1,-3
7193686304,8,15,6,3,13,11,4,4
7193686304,6,-38,5,12,-4,-3,-5,-5
7193692426,5,46,-11,-30,-8,0,8,-1
7193692426,20,48,25,7,-7,-3,-6,5
7193707470,-13,59,9,-4,-9,-21,-4,0
7193707470,-5,6,7,16,6,11,-5,-2
7193714917,-6,2,-6,-6,13,0,3,-2
7193714917,-12,-21,-7,-17,-11,-7,-8,0
7193723803,7,-69,-10,0,7,0,10,-1
7193723803,0,-24,3,3,-2,-5,8,-1
7193737362,8,-64,-25,-21,3,21,8,2
7193737362,5,-33,23,16,8,0,-11,-3
7193746266,2,-6,20,25,20,0,-14,1
7193746266,-16,-26,-4,-23,-7,-7,12,-3
7193760607,10,-6,-15,-2,-13,-8,-1,2
7193760607,-6,-12,12,5,-18,-5,2,-5
7193767415,-9,-3,-14,-22,-16,-5,-8,-7
7193767415,0,14,17,19,6,6,-4,-2
7193783804,1,-17,-17,-16,26,0,-5,-2
7193783804,-5,12,10,20,-4,4,9,0
7193785293,-5,-10,2,-4,-20,-12,-8,-7
7193785293,9,-6,-10,37,15,2,0,1
7193797404,9,3,-9,-23,-2,1,3,3
7193797404,-3,1,8,0,-7,1,2,-1
7193806272,4,5,-16,-6,5,3,8,2
7193806272,8,21,13,43,-1,-2,-2,5
7193820595,-1,5,-18,-28,-3,4,1,-3
7193820595,-4,-5,21,20,-10,-4,1,-1
7193827416,1,-10,-30,-62,-11,3,0,1
7193827416,-8,-5,-2,23,41,7,0,-5
7193843682,10,-5,-7,11,-8,-2,2,7
7193843682,-2,9,5,11,4,-1,-2,-3
7193845242,0,7,14,22,-8,-1,0,-3
7193845242,-13,-15,2,-12,-13,-12,-9,-2
7193857442,-1,-6,-7,-9,3,-1,1,-3
7193857442,7,5,-6,-4,8,-9,8,3
7193866278,4,7,12,30,7,18,2,1
7193866278,-9,-8,-18,-29,-9,-4,-9,-5
7193880512,-3,0,-1,1,-11,-7,6,-1
7193880512,-1,-5,-2,-1,-3,2,-3,-4
7193887434,-1,-22,2,-8,1,0,3,2
7193887434,-3,-8,-1,-12,-13,-3,1,-2
7193903793,4,3,-4,-3,3,-3,-10,1
7193903793,-2,3,-5,-9,-1,1,12,3
7193905327,-4,-2,7,8,4,-5,0,12
7193905327,-6,-3,-4,-14,-6,2,8,-9
7193917401,-4,-10,7,10,-6,-29,-8,11
7193917401,7,6,-5,-6,3,18,14,3
7193926274,0,4,2,4,1,1,5,8
7193926274,1,6,6,-1,-4,0,4,-1
7193940519,3,9,1,-1,4,-3,-3,-7
7193940519,2,4,-2,0,-2,0,-3,6
7193947316,11,0,1,-3,0,-6,0,-2
7193947316,-22,-13,-6,-9,-2,-2,-6,-3
7193963767,-15,-28,-2,1,-2,6,0,-12
7193963767,20,-7,-4,-5,-3,-3,-8,-1
7193965267,-6,-2,4,2,-2,-5,-7,-7
7193965267,-4,9,-2,-5,-2,-1,-1,-9
7193977419,-5,9,5,-5,-5,5,-10,7
7193977419,-7,-21,6,2,-1,0,-2,-2
7193986247,-10,22,-13,-5,-2,-7,-2,-8
7193986247,2,-39,-9,-15,-8,-5,-10,4
7194000596,9,79,20,9,-7,0,0,-2
7194000596,-1,-60,-44,-21,2,-4,-6,-7
7194007414,-2,22,10,7,2,7,4,-1
7194007414,-2,11,14,7,8,7,-1,-1
7194023751,2,-15,26,34,-10,-4,-1,-3
7194023751,4,-2,-21,-21,14,-6,-8,-2
7194025255,-4,8,-10,-13,-11,-6,-7,-3
7194025255,-3,11,11,-8,-6,3,4,4
7194046159,1,-26,-25,-14,9,0,5,0
7194046159,-2,37,6,27,5,2,-7,-1
7194047788,-6,-22,20,-2,-9,-8,-3,-5
7194047788,11,21,7,-27,-6,-8,-6,2
7194060632,3,20,11,50,16,8,4,2
7194060632,-4,-1,-21,-20,-5,-1,3,3
7194067318,6,34,-7,-8,-5,1,0,-1
7194067318,4,7,26,13,-2,-1,-4,-1
7194083734,3,-8,-45,-12,-4,-2,-3,0
7194083734,-13,17,70,-4,-9,-2,0,-4
7194085261,-9,-7,-68,-7,2,1,-2,-5
7194085261,2,-4,-2,5,-3,0,-1,-10
7194097402,1,4,24,-13,1,2,4,13
7194097402,17,19,0,5,-6,-21,3,6
7194106326,-14,-5,16,3,6,22,-10,-15
7194106326,-15,-25,-9,8,11,4,21,1
7194120619,-6,-22,-8,-10,5,-12,11,-13
7194120619,-8,-1,-1,3,-5,32,-86,3
7194127411,-5,-10,20,5,5,-3,58,9
7194127411,27,11,-29,-16,-18,-18,-17,-6
7194143734,-17,-11,10,1,7,11,9,-3
7194143734,14,10,-2,2,-7,-33,-7,-8
7194145274,-12,-11,5,5,13,30,-19,0
7194145274,-7,-10,4,-13,-22,-16,-17,6
7194157385,3,4,-20,-5,5,-10,-4,-4
7194157385,-5,0,-3,10,-2,-3,4,-2
7194166272,7,-1,6,-20,2,-16,-9,-1
7194166272,4,17,1,14,-10,5,12,4
7194180575,4,-3,2,-28,-8,3,-17,0
7194180575,3,11,20,40,12,5,31,0
7194187270,2,-6,27,-22,7,7,5,5
7194187270,-2,-16,-17,15,5,6,-8,0
7194203736,-1,-17,-41,-35,-4,-5,-7,-5
7194203736,-2,-2,14,15,-22,6,13,1
7194205226,-2,-14,-11,-76,-38,-21,-7,0
7194205226,-7,-15,-8,76,48,-2,-6,-5
7194217451,1,2,13,-15,-23,6,-3,-1
7194217451,-13,-23,-27,2,21,6,19,-3
7194226245,11,-2,14,-14,-52,-9,-12,-2
7194226245,2,10,-21,-6,16,9,6,4
7194240556,-1,-2,4,-60,-53,-31,-2,-5
7194240556,-5,-10,-51,-22,34,36,7,-2
7194247401,-8,2,21,20,-9,-14,-2,-2
7194247401,-5,0,23,-15,-7,1,6,-4
7194263661,1,5,11,-1,-5,-1,-6,-1
7194263661,2,11,25,9,-14,-3,10,-1
7194265247,-1,-15,-25,17,20,-14,-42,-5
7194265247,13,35,13,-20,-14,12,40,5
7194277384,-3,-16,-6,40,22,4,-5,-9
7194277384,-11,5,7,-14,-2,-15,18,-2
7194286293,15,4,3,36,21,4,-78,22
7194286293,-10,-14,0,-5,-1,4,25,-15
7194308627,4,-16,11,6,4,1,-4,14
7194308627,-7,-21,-10,-9,-3,-2,17,4
7194310223,-7,-17,-1,8,1,-21,-5,-67
7194310223,8,-3,1,-3,-3,9,-10,18
7194323702,0,-6,-11,3,9,28,23,44
7194323702,15,12,9,-12,-13,-19,-33,-43
7194325219,-7,2,4,27,18,9,19,12
7194325219,-26,-42,-12,-19,-7,-20,-17,-18
7194337375,-4,3,6,16,10,16,13,-6
7194337375,10,0,2,-5,-5,-6,-9,8
7194346266,8,-14,-7,2,-3,1,23,9
7194346266,4,16,0,-5,-3,-9,-13,-4
7194360607,25,17,6,4,2,-1,-9,8
7194360607,-60,-9,2,-1,-3,-5,-2,-2
7194367411,42,27,-3,7,9,7,14,1
7194367411,-24,13,-3,-7,-7,2,-10,12
7194383083,-3,-17,-5,10,6,-6,-8,-15
7194383083,8,41,9,8,0,8,4,9
7194389815,-14,-8,-5,-7,-5,-3,13,2
7194389815,12,-2,-3,-17,-3,4,-5,-3
7194397372,1,51,11,43,12,2,8,-4
7194397372,15,47,16,-6,9,6,0,3
7194406290,2,-46,-41,-13,3,2,3,6
7194406290,-5,-15,4,19,-9,-11,-9,-3
7194420568,-19,12,-22,-30,-13,-11,-5,-11
7194420568,-23,-25,28,-13,6,4,-3,-1
7194427383,23,89,-14,17,15,8,19,14
7194427383,-35,-89,2,-15,-14,-11,-21,-18
7194443091,-3,22,-83,-7,-11,-4,-5,-10
7194443091,25,4,60,69,8,-3,-2,10
7194449828,-11,-27,-20,-37,-33,-4,-1,-7
7194449828,0,37,-10,-24,17,1,-1,1
7194457358,7,-52,-29,9,2,1,0,3
7194457358,-3,38,6,-10,-13,-12,-10,-6
7194466287,13,9,46,16,-5,2,8,5
7194466287,-17,27,-12,16,6,-2,-2,0
7194479821,-17,-19,36,-23,-6,-2,-5,-13
7194479821,22,-19,-48,35,13,-1,3,6
7194488767,11,23,28,10,0,-1,-3,7
7194488767,11,30,11,2,-15,1,-2,3
7194502943,-10,52,-8,-24,19,-15,-1,-4
7194502943,-1,29,-15,-27,-9,19,-3,-9
7194509813,-27,23,-6,0,-5,-10,-5,-3
7194509813,24,19,5,1,-12,1,-2,6
7194526194,6,-44,18,17,-6,-1,1,-5
7194526194,7,-64,1,-11,20,17,-9,6
7194527720,-26,-47,-23,-30,0,0,10,0
7194527720,9,-38,-5,-11,-25,-1,-20,0
7194540546,-2,-40,29,32,3,-2,23,1
7194540546,1,-30,-18,-21,-29,-30,-8,-2
7194547289,-5,-16,-23,-38,-10,-7,-7,-7
7194547289,2,-13,19,28,38,12,12,2
7194563139,6,1,23,-27,8,8,-10,0
7194563139,-8,-11,-7,-24,-19,-10,3,-1
7194569906,-15,-33,8,23,7,0,1,-4
7194569906,5,0,-8,7,0,6,8,0
7194586140,0,6,21,16,6,12,-1,-1
7194586140,-18,-16,-18,-24,-1,-10,-1,-7
7194587756,5,7,24,16,12,0,0,-1
7194587756,-4,6,-10,-41,-8,-1,0,-2
7194600564,7,21,11,37,1,-1,-2,4
7194600564,-16,3,1,-27,12,-3,-4,-7
7194607365,8,13,5,18,-13,8,-1,0
7194607365,-3,7,2,20,-5,-13,-3,-5
7194623052,-2,2,-8,-16,21,8,0,1
7194623052,2,1,-4,17,-13,-2,1,1
7194629843,-2,-4,8,5,7,-1,0,-2
7194629843,7,9,-5,-11,2,-13,1,3
7194646057,-4,-6,15,-11,-8,9,-7,-4
7194646057,4,7,4,-4,-4,0,2,4
7194652411,4,6,-12,0,11,4,2,1
7194652411,0,-10,-12,-1,4,3,1,-1
7194659888,-11,-8,5,-9,-23,-12,-9,-6
7194659888,0,0,-19,8,5,3,3,0
7194668727,-1,0,9,8,9,10,5,0
7194668727,0,5,15,11,-1,-12,1,1
7194682999,1,-6,-21,-16,-4,5,-1,1
7194682999,8,-8,-8,-3,-8,-6,-2,-2
7194689896,-14,-11,-8,-7,-14,-6,-18,-9
7194689896,0,-4,-2,-2,1,3,-14,3
7194706191,-2,-4,2,15,12,-11,-4,-1
7194706191,-8,-5,-1,-1,-1,28,17,-17
7194707734,-12,-13,-1,7,0,-13,-9,-4
7194707734,4,11,-9,-16,-13,-7,-8,-4
7194719895,4,18,3,-1,0,-10,-6,0
7194719895,5,12,10,6,-2,-1,-2,5
7194728787,4,-11,-15,-12,-3,-3,3,2
7194728787,-4,7,1,1,9,7,10,-6
7194743009,-7,-8,-2,2,-8,-1,-7,-1
7194743009,-13,-17,-4,-4,-2,-7,1,1
7194749889,6,-11,-1,-2,2,4,3,3
7194749889,13,6,5,-9,-5,-1,0,6
7194766152,-1,-13,-9,0,-5,3,1,0
7194766152,-10,-25,-3,3,3,-4,-6,-2
7194767769,0,37,2,-22,-6,-4,-3,-2
7194767769,7,-4,-4,0,-5,1,1,1
7194779861,0,-1,-8,-13,3,-6,1,0
7194779861,-10,2,-11,3,-3,2,-1,-1
7194788746,-11,-7,-5,2,4,-1,0,-2
7194788746,-4,5,8,-1,4,4,4,-2
7194803053,13,11,15,18,-10,-1,-1,1
7194803053,0,11,-1,-10,6,-5,-3,4
7194809872,9,6,-14,-2,-2,-4,2,2
7194809872,-1,4,-12,-6,12,10,6,1
7194826228,-8,-3,-7,-5,-11,-5,-5,-8
7194826228,-7,-23,21,-6,-6,2,-1,-2
7194827738,8,9,4,37,3,2,5,7
7194827738,1,16,11,14,0,-3,-3,0
7194839890,4,5,7,-23,-11,-5,-2,4
7194839890,-2,22,-17,10,6,2,2,3
7194848712,3,0,13,-1,-3,0,-1,-3
7194848712,-16,-21,-2,-2,-2,1,-1,-2
7194863079,-16,-3,-5,-2,0,3,7,-5
7194863079,33,11,-6,8,-4,-4,-7,4
7194869888,-21,2,0,-12,-5,-4,-2,-6
7194869888,-14,-11,1,3,6,1,3,-5
7194886229,-4,-5,-6,-2,-1,7,-10,-7
7194886229,-3,6,1,5,-1,-11,-3,1
7194887747,21,9,-1,3,-3,-13,2,4
7194887747,8,9,-4,-13,-14,9,-12,0
7194899841,-15,1,2,9,5,0,6,-2
7194899841,3,2,-7,-3,1,18,9,-6
7194908741,1,-8,-9,-3,12,-7,-3,2
7194908741,6,2,-2,-5,-7,-2,0,1
7194923048,0,-9,0,4,-7,-26,-1,-3
7194923048,-10,-4,0,-7,-28,-3,-14,3
7194929861,-5,4,-1,-1,17,14,7,-4
7194929861,9,-10,-9,-15,22,1,3,2
7194946216,-2,-1,-4,-23,0,13,14,1
7194946216,-7,-4,6,18,-10,-31,-6,-11
7194947726,-29,-20,-10,7,13,3,-34,-1
7194947726,4,-2,1,9,-10,-1,2,-1
7194968628,16,12,11,0,-28,-19,-6,5
7194968628,-1,5,-4,-19,17,14,8,3
7194970225,1,-23,-15,-3,12,25,8,-3
7194970225,6,12,-2,27,-7,-30,-18,-5
7194983064,-16,-23,-6,-9,15,1,0,-9
7194983064,-3,-11,-10,-11,-12,-7,-13,-1
7194989868,1,-13,8,-24,-27,-3,8,-5
7194989868,-10,-1,0,4,-18,-24,-21,1
7195006204,-3,-22,-15,-4,11,21,10,-4
7195006204,16,4,21,33,9,2,1,5
7195007720,-10,1,-15,2,17,-7,5,-4
7195007720,13,11,-3,33,7,2,7,1
7195028077,-8,1,-1,-43,-31,-2,-2,-1
7195028077,-5,-7,-3,48,34,7,4,-2
7195028653,13,4,1,-56,-26,2,3,4
7195028653,1,11,-1,-11,3,-8,7,4
7195043775,-3,2,-1,38,1,-1,-7,-7
7195043775,0,2,-1,-22,-5,-4,5,4
7195049810,8,9,15,18,-11,-10,-4,-1
7195049810,-15,-4,15,2,0,4,1,-6
7195065501,6,18,12,8,9,-4,-10,0
7195065501,-2,-15,-7,-43,-17,-3,0,-1
7195066193,-1,10,-2,25,2,10,-9,-4
7195066193,-8,-18,-3,-11,11,17,14,3
7195088038,7,-4,-11,10,12,12,-3,0
7195088038,-5,-3,-5,1,-4,1,11,0
7195088683,-5,2,-3,8,-4,-22,-11,-2
7195088683,13,-4,0,-4,-2,-51,-34,-4
7195103684,9,16,3,7,9,60,36,-1
7195103684,-18,-7,-7,-7,-2,-8,4,13
7195109882,4,-34,-1,-3,-3,5,19,35
7195109882,-4,-22,-5,-10,-8,-5,-9,-31
7195125469,1,0,5,3,-4,-32,-13,4
7195125469,8,18,1,-6,2,7,-4,-23
7195126196,-6,6,0,6,3,-3,12,18
7195126196,5,-4,-2,2,3,19,7,10
7195148050,-18,-25,-7,-2,-3,-3,-19,-4
7195148050,-1,-27,0,-7,-3,9,31,-3
7195148733,0,-6,8,-1,-9,-14,-40,-14
7195148733,-1,-4,-9,-8,-1,6,5,5
7195163771,7,7,-3,-5,1,3,-3,-2
7195163771,-13,3,-6,-4,-3,-19,-20,3
7195169895,-11,0,7,8,4,2,12,-12
7195169895,14,0,-2,-7,-5,6,21,-1
7195185569,1,-9,3,3,9,-5,-7,13
7195185569,-22,10,1,-5,-6,-6,-5,-4
7195186219,6,-9,5,11,0,4,-2,-10
7195186219,-25,-7,-9,-4,4,18,18,0
7195208082,16,-11,-1,-3,-11,-18,-4,2
7195208082,40,21,17,10,2,-12,-18,2
7195208759,-34,46,-16,-23,-4,14,8,-15
7195208759,1,3,12,9,0,8,1,8
7195223734,-22,35,-5,13,-16,-16,-20,-19
7195223734,26,-21,-12,-2,5,3,1,2
7195229870,-24,60,31,59,26,-3,1,-7
7195229870,-16,-41,-22,-30,14,-3,-8,-4
7195245529,33,93,94,51,9,3,5,12
7195245529,-38,24,-112,-61,-6,6,3,-7
7195246217,-4,34,13,-6,-4,-1,-4,-9
7195246217,38,81,85,12,7,10,2,12
7195268060,-20,-45,-116,-32,-15,-18,0,-6
7195268060,-39,-76,37,18,-8,-3,-13,-14
7195268690,22,37,95,30,-27,-10,5,11
7195268690,-14,25,-106,-19,3,5,-5,-4
7195283743,13,-50,31,-40,13,8,6,6
7195283743,15,-25,-5,8,-1,5,-1,5
7195289845,2,-6,-39,-46,-23,-8,-5,-5
7195289845,4,-26,32,66,6,-5,-3,-1
7195304875,16,30,-10,17,-11,-5,2,8
7195304875,-21,2,-3,36,0,9,-5,-6
7195312356,19,-7,-13,1,28,18,12,6
7195312356,2,18,1,-9,-7,-24,5,-2
7195328066,-15,-23,-6,-12,18,21,-21,0
7195328066,14,79,40,-18,-21,-18,-4,-3
7195328708,-7,-18,-21,-3,-24,-3,-50,-12
7195328708,-7,-3,-6,-20,-3,5,34,4
7195343809,-11,7,-8,4,-10,17,13,-5
7195343809,17,-7,28,15,-19,-15,7,8
7195349776,3,-62,-30,-10,43,6,-13,-3
7195349776,-10,-52,0,2,20,3,-12,-8
7195364877,0,-20,19,-21,-32,-14,-3,2
7195364877,-2,-13,-3,-3,6,3,3,-5
7195372372,3,-45,4,31,-4,-7,10,-3
7195372372,-13,0,6,-13,21,6,-7,-5
7195387918,3,-11,2,-39,-11,-16,6,-1
7195387918,2,-8,-5,-12,3,16,-3,0
7195388756,16,11,-14,31,-6,-28,8,2
7195388756,-15,-21,13,-26,-4,14,-9,-2
7195403704,1,12,-13,-24,-7,-21,-10,-4
7195403704,-7,-12,-8,-2,11,6,-1,-2
7195409871,1,-1,12,-11,19,16,17,4
7195409871,2,17,7,32,-25,-2,-4,-1
7195424817,-5,4,7,12,12,11,9,-2
7195424817,5,20,7,-4,3,-10,-6,0
7195432330,-7,-20,-17,-29,-22,-5,0,-5
7195432330,-10,-12,-6,5,-9,-7,-8,-3
7195448087,-8,-4,8,60,6,-10,-9,-2
7195448087,-4,-5,0,-47,-1,14,7,-1
7195448647,7,-5,-18,-14,7,11,8,5
7195448647,2,-4,-9,-19,-1,8,2,1
7195463686,-6,-4,-4,-2,7,-5,3,-2
7195463686,9,11,17,19,-13,-12,-9,1
7195469835,-1,-9,-11,-20,-20,-3,-2,-3
7195469835,0,11,7,8,6,9,1,2
7195484835,4,7,-1,5,1,-16,-6,1
7195484835,2,0,3,5,3,5,8,-1
7195492332,-5,-5,-5,-22,-19,-8,-15,-2
7195492332,2,-6,-6,1,1,-3,3,2
7195508026,0,-4,5,16,27,24,3,3
7195508026,3,0,0,-3,-6,-11,-13,-1
7195508691,-4,-4,2,-2,2,4,6,-3
7195508691,-1,5,-6,-7,-21,-27,-16,-23
7195523727,5,4,1,-2,5,26,8,3
7195523727,-3,-3,-5,4,3,-7,2,17
7195529763,-3,-2,3,3,0,-1,-5,-18
7195529763,-6,-10,0,-2,-8,-8,-2,4
7195544883,1,-2,1,-9,-4,-5,4,-16
7195544883,-1,2,2,7,7,1,-2,2
7195552332,16,14,11,1,-2,7,8,11
7195552332,-6,3,3,-2,-3,1,-3,0
7195568074,-16,0,-11,-7,0,-5,-2,-4
7195568074,3,-7,-5,-5,1,2,2,-4
7195568664,-8,-12,-2,7,3,-1,2,2
7195568664,-3,-9,-6,-1,-4,2,1,0
7195583744,5,5,9,2,-7,1,2,3
7195583744,3,4,4,-12,-4,-13,-13,-5
7195589828,8,2,-1,-6,0,-3,0,1
7195589828,8,-3,-6,23,0,5,1,5
7195604902,-6,-12,-2,14,5,-8,-1,-1
7195604902,-17,1,-9,-11,2,7,3,-3
7195612343,0,-4,6,-7,-9,-7,-2,0
7195612343,2,4,-14,-7,1,4,-1,0
7195628041,23,3,3,-2,-6,-2,-2,4
7195628041,-14,10,17,5,0,5,3,-3
7195628729,-3,-9,-19,12,20,9,4,0
7195628729,8,23,17,7,-3,-1,3,3
7195643675,-18,-49,-17,8,7,-1,-5,-4
7195643675,13,18,0,-5,-8,-1,-2,1
7195649781,-7,12,9,0,-9,-13,-5,-4
7195649781,12,21,0,-10,0,3,3,6
7195664796,3,47,-3,2,-1,-4,-1,0
7195664796,-14,-30,-18,-10,-4,-2,-6,-2
7195672289,-18,-42,-9,1,7,3,2,-2
7195672289,1,0,8,-8,-12,-5,-6,-5
7195687898,15,7,0,-14,-1,2,2,6
7195687898,5,61,13,6,-8,-12,3,-4
7195688708,1,4,7,9,3,2,-8,2
7195688708,-6,3,10,3,9,14,4,-1
7195703738,-20,-19,-30,-26,-15,-9,-6,-4
7195703738,16,-12,2,24,8,4,2,1
7195709850,-5,-14,17,10,-7,-5,0,1
7195709850,-8,-39,-40,-32,9,2,3,-1
7195724791,-1,31,2,-8,-4,-3,-3,-3
7195724791,-2,-2,-12,4,4,-6,-5,2
7195732371,12,35,10,4,-13,6,2,-4
7195732371,-8,-9,17,16,9,2,-4,-2
7195747987,-8,-9,6,6,-4,-7,1,-4
7195747987,1,-24,-16,-9,-5,-1,-1,-1
7195748695,-2,2,-2,-8,18,2,2,4
7195748695,3,1,4,10,-11,-5,-2,4
7195770499,-8,-17,-4,-26,-6,-1,-4,-9
7195770499,5,16,23,24,7,6,6,3
7195771166,-3,-13,-31,-26,-6,-11,-23,-7
7195771166,9,9,-3,-18,-21,-18,-5,0
7195784824,6,-8,5,31,22,17,11,10
7195784824,-9,-9,4,17,11,-1,-1,-5
7195800516,2,2,-2,-19,-20,-11,0,-3
7195800516,0,-14,-6,31,21,-4,-1,-1
7195807988,4,14,13,2,-1,4,-3,-1
7195807988,-2,-14,0,-23,8,13,2,-5
7195808642,1,3,5,8,-46,-28,-2,5
7195808642,-8,-3,-17,-14,3,-1,-6,-6
7195823694,-1,12,5,0,-8,1,1,1
7195823694,3,-8,3,0,14,2,-1,3
7195829805,-7,-9,-9,-8,-12,-17,0,-6
7195829805,1,2,1,14,-20,-1,-8,-6
7195844845,-11,-20,-4,-17,25,11,4,0
7195844845,3,-9,-23,1,-16,-3,-5,-2
7195852332,-9,-6,1,1,11,0,0,-1
7195852332,-1,2,0,-16,-8,-6,2,1
7195867967,0,7,20,12,-3,-1,-4,-4
7195867967,8,5,-3,15,4,3,4,4
7195868690,-3,10,-5,-21,8,2,1,-5
7195868690,2,10,16,37,-8,1,0,1
7195890481,-5,-7,-38,-34,4,-10,-4,-1
7195890481,9,14,5,3,-10,-2,1,3
7195891172,5,4,4,15,20,19,12,4
7195891172,1,-5,-4,-10,-3,1,1,3
7195904814,2,4,4,6,-9,-7,0,-1
7195904814,-2,-1,-12,-2,0,-10,-14,-4
7195912330,-5,-20,-6,-1,11,14,18,0
7195912330,5,13,-6,-15,-4,-14,-7,6
7195928081,-3,-11,12,16,-7,33,-19,-12
7195928081,-5,-16,-15,-17,7,12,9,12
7195928649,2,-1,2,-1,-10,-13,-4,4
7195928649,-4,-7,-1,-6,4,-4,5,0
7195950473,1,-3,3,-1,-8,-24,6,-13
7195950473,-8,3,5,-7,-9,-9,10,2
7195951194,4,7,0,5,7,28,1,-7
7195951194,1,3,0,-1,4,5,-11,10
7195964868,-6,1,3,2,-2,-10,-5,5
7195964868,-17,-12,4,-1,-3,-10,-4,-11
7195972328,-4,-11,-3,4,1,-4,-1,2
7195972328,3,-18,-2,-11,0,-6,20,-9
7195988058,0,-5,0,1,-4,3,-9,9
7195988058,6,5,3,-1,0,5,7,-3
7195988645,-13,-2,-1,0,0,-4,-7,-2
7195988645,-12,-5,2,-3,0,-2,-18,-10
7196010481,-8,24,17,-4,-6,-3,8,3
7196010481,9,17,-16,6,2,-2,-2,4
7196011223,14,-35,9,6,-3,2,1,4
7196011223,19,58,-5,-17,5,3,2,-2
7196024852,-15,-63,-31,-5,-15,-14,-6,-8
7196024852,-17,11,8,23,22,8,-6,-5
7196032324,15,26,3,-3,-11,-3,-1,6
7196032324,-35,10,18,-14,-3,4,-1,-5
7196047984,32,-4,-11,34,15,6,10,7
7196047984,7,-7,61,-39,-1,-6,-7,-2
7196048593,5,66,-71,-46,0,7,6,3
7196048593,1,-53,-16,30,-7,-4,6,3
7196070560,12,93,-5,-37,-3,-5,-6,3
7196070560,-4,2,-1,4,-19,-6,-9,-16
7196071178,-2,15,71,22,-3,-6,15,7
7196071178,-3,56,-19,-30,4,12,-14,1
7196084819,11,47,31,24,-9,-3,13,4
7196084819,-8,-55,-8,9,16,12,13,6
7196092266,-6,-50,-66,-41,-5,-8,-19,-13
7196092266,1,50,29,19,-8,-6,-3,-2
7196107906,-25,-79,-16,-3,4,-7,-2,-6
7196107906,25,77,16,17,-8,-7,-10,-1
7196108659,-11,-14,21,3,10,3,-2,-8
7196108659,2,-40,-12,5,-3,-6,2,13
7196130448,8,30,11,-11,-4,14,-6,-6
7196130448,-10,-29,-22,-1,21,0,10,-1
7196131153,11,23,15,21,-1,-3,-32,-1
7196131153,-12,-14,-9,-1,-15,-17,-18,-13
7196144810,0,26,-1,-13,-2,14,26,3
7196144810,-19,-19,-20,10,0,-7,-25,-5
7196152331,-4,-12,8,14,20,16,26,2
7196152331,14,-1,9,-7,7,5,7,3
7196167929,-5,-36,-13,4,-13,-16,-12,0
7196167929,-1,-13,4,1,-18,-22,-11,-5
7196168724,3,22,-10,-9,1,-5,-13,1
7196168724,-18,-27,-6,-6,-13,12,-3,-11
7196190469,-2,-18,4,-15,0,-7,6,-5
7196190469,4,-22,-3,10,10,13,14,5
7196191171,-7,-11,5,6,-8,-15,-16,-5
7196191171,4,-25,-7,21,18,-3,14,0
7196204800,0,-19,-3,11,9,17,-4,-3
7196204800,3,9,0,-15,-13,-6,0,1
7196212297,-9,0,-11,-4,-2,-3,5,-3
7196212297,-8,-12,3,3,-21,-1,-8,-6
7196227321,4,12,-30,-8,15,-13,0,7
7196227321,0,0,-15,-4,-11,-2,-4,-6
7196235481,-6,1,10,3,-2,-3,-1,-5
7196235481,7,4,-4,-24,-2,-2,2,1
7196250483,-10,-2,4,-7,-9,-5,-5,-2
7196250483,17,28,1,-21,-10,2,5,3
7196251134,-4,-20,1,28,16,4,0,-2
7196251134,-7,-17,10,6,8,10,2,-3
7196264734,-12,-23,-15,-1,1,-7,-7,-4
7196264734,-4,-21,7,-26,-13,1,-8,-4
7196272330,3,-11,-13,-3,-4,-9,5,5
7196272330,8,3,2,12,-6,13,6,0
7196287327,6,-3,0,-27,4,5,-1,2
7196287327,-20,-9,-7,-2,-4,1,2,-4
7196295474,-8,-6,14,14,-1,3,1,1
7196295474,2,0,-22,-22,-1,-6,7,-2
7196302157,1,-9,10,21,-5,-1,-6,3
7196302157,-2,10,2,6,0,6,4,-3
7196309823,3,1,-4,-19,-12,-37,-5,-4
7196309823,2,3,12,6,12,30,6,8
7196324818,-5,-1,10,6,-7,-7,-1,-2
7196324818,2,-6,-8,-10,-6,-13,3,3
7196332281,2,-2,-2,1,0,11,16,1
7196332281,11,8,5,2,2,-11,-17,-2
7196356154,-14,-3,2,7,-1,-2,-7,-5
7196356154,-8,-2,-7,0,0,-5,38,7
7196356856,-11,-2,-1,-4,-8,9,-4,-8
7196356856,2,7,2,1,4,-12,-4,-1
7196362307,5,6,3,-1,0,0,7,1
7196362307,20,5,-10,-4,-3,0,-16,-5
7196369827,-17,1,4,1,-3,-8,-10,3
7196369827,-7,-7,1,-1,8,7,11,-2
7196384863,-1,1,3,7,6,6,-3,1
7196384863,0,8,2,-2,-2,-1,-2,0
7196392298,-2,-7,-1,-1,-6,3,-8,-4
7196392298,-2,-2,-8,-4,0,-10,-3,-5
7196407288,16,7,11,7,-9,-9,-4,2
7196407288,-4,6,-21,-20,-3,0,-14,-3
7196415465,3,13,4,-5,-4,3,2,-1
7196415465,-6,-9,1,3,0,-1,-2,0
7196430451,2,-4,-16,-12,8,4,4,0
7196430451,-9,-7,18,26,2,1,-8,-4
7196431171,0,4,-17,-7,5,3,-1,-1
7196431171,17,-5,-9,-13,-17,-12,-3,-1
7196444811,-11,-5,0,3,4,-1,-5,-3
7196444811,-23,-8,5,-5,-4,2,-4,-3
7196452256,9,1,14,13,-4,-1,1,2
7196452256,-14,13,-22,-13,9,-4,-1,-1
7196467343,16,14,-4,8,1,2,-1,2
7196467343,1,3,10,-22,-13,-10,-7,-2
7196475501,-2,-3,2,17,17,12,4,2
7196475501,-4,-21,0,-15,-15,-5,-1,-3
7196490427,10,28,2,-6,-7,-9,-2,-1
7196490427,0,5,15,27,17,19,8,2
7196491220,6,10,6,-1,3,-2,1,0
7196491220,0,-16,-6,21,2,1,-5,-3
7196504818,-8,-15,-5,-18,-7,-8,-6,-6
7196504818,3,13,-17,-13,-13,-9,-2,-2
7196512342,0,-13,-2,-11,-15,-6,-6,-3
7196512342,-14,10,7,13,10,10,3,-4
7196527287,16,1,5,4,-4,-9,-3,0
7196527287,-3,-2,-1,1,6,12,0,-1
7196535485,-12,-18,-12,-2,7,1,6,1
7196535485,-9,4,-2,-15,-8,-16,-13,-2
7196550509,-1,-4,1,3,-11,0,18,0
7196550509,9,-18,-4,2,14,0,-3,-1
7196551130,-9,6,-4,-6,-9,0,-2,-8
7196551130,4,2,16,16,7,3,4,3
7196564759,3,-8,-3,-10,2,-2,5,6
7196564759,-5,0,-6,9,-11,-12,-15,0
7196572333,2,4,-8,-11,-5,9,7,-10
7196572333,-10,-5,5,5,9,7,-3,-2
7196587320,1,6,-9,6,1,-4,-6,-2
7196587320,0,-3,6,-12,-6,-6,-3,-4
7196595512,6,6,-2,12,6,2,-7,2
7196595512,7,6,14,23,22,4,14,8
7196610412,-10,2,-7,-13,-12,14,4,-1
7196610412,11,-9,1,-7,-10,-5,2,4
7196611117,9,-1,-1,-21,-1,-5,-4,-2
7196611117,-7,-20,-9,-17,-18,-3,-3,-6
7196624785,-17,-14,7,20,13,0,1,-2
7196624785,3,6,22,22,-5,3,-4,-2
7196632224,-5,-28,-31,-19,9,1,0,-2
7196632224,16,37,31,11,-14,-2,-5,7
7196647282,-1,-17,-43,-21,8,-10,-4,-1
7196647282,-1,8,-19,-14,-2,-8,-5,-4
7196655508,17,7,19,0,5,5,6,4
7196655508,-13,-14,16,13,-12,1,1,-4
7196670332,-5,17,-9,-10,5,6,0,-1
7196670332,11,-8,-1,7,6,1,2,7
7196671272,3,3,1,1,-4,-2,-4,-4
7196671272,2,3,-2,3,4,5,13,1
7196684791,-3,-13,11,2,-2,8,-8,2
7196684791,-7,-4,-16,-5,4,-36,8,-3
7196692311,-6,-1,4,10,-1,42,4,1
7196692311,6,-16,-18,-22,-8,-16,17,-5
7196707332,0,-8,0,11,2,-14,0,1
7196707332,0,-1,10,5,11,51,37,8
7196715463,-5,-1,-1,-3,-10,-36,-6,-2
7196715463,-1,8,-12,-8,4,2,15,0
7196730422,-5,6,10,-2,-4,13,-40,-4
7196730422,1,0,-1,3,-1,-9,3,-10
7196731213,-9,24,19,7,-4,-17,-5,-3
7196731213,1,-23,-14,-9,0,16,-7,0
7196744698,-1,-17,12,4,-11,-29,-4,-4
7196744698,1,-6,-5,-13,-8,14,-2,6
7196752312,-10,-12,-10,2,2,-19,-13,-14
7196752312,18,-19,-9,-4,-2,6,-15,1
7196767242,-10,-12,3,4,0,5,10,1
7196767242,-30,-21,-10,-8,-5,-10,-25,-9
7196775488,9,-11,0,4,-1,-10,9,2
7196775488,13,19,6,-3,3,3,-10,5
7196790459,-7,13,-3,-8,-6,-7,13,4
7196790459,-5,-49,-4,7,4,0,-21,-2
7196791179,-10,-9,-1,2,-4,-5,-5,-3
7196791179,-11,46,8,-8,-2,-9,-10,-7
7196804801,-15,11,-10,16,7,14,2,-8
7196804801,28,7,-5,-6,2,-11,-1,10
7196812305,13,41,58,17,-18,9,-8,6
7196812305,-24,-63,-40,-10,7,-6,14,8
7196827241,-6,58,-25,-13,-9,-8,-8,-20
7196827241,-41,-32,18,45,-33,-13,-9,-12
7196835481,33,34,-40,-43,20,22,17,10
7196835481,-9,-80,25,5,-1,-2,-3,-5
7196850457,-12,-64,-31,-4,32,17,11,7
7196850457,32,107,17,33,-3,-1,13,10
7196851175,-27,-29,80,-13,-15,-12,-23,-4
7196851175,-12,15,-9,-17,-15,-18,-19,-18
7196864743,21,-25,-9,-25,-15,-3,13,7
7196864743,14,11,-39,19,13,6,-15,-4
7196872299,0,8,-17,-9,1,1,9,8
7196872299,9,5,-5,-3,11,2,-3,-2
7196887225,-6,1,17,-2,-10,-1,-7,-6
7196887225,25,29,13,-28,-9,-6,4,6
7196895491,-12,-20,-23,18,22,3,4,-2
7196895491,-4,23,-3,5,-4,-7,-10,1
7196910349,4,30,3,4,-6,-1,-13,9
7196910349,-11,24,0,-22,1,17,6,-10
7196911153,3,32,-21,13,10,-17,2,-5
7196911153,4,29,7,-9,-21,15,-14,4
7196924777,-2,-16,22,7,-4,5,-6,-7
7196924777,-14,-45,-1,-1,-4,-5,-4,-2
7196932259,12,-51,-2,-1,26,10,-11,7
7196932259,13,-8,-5,36,0,-9,2,0
7196947223,-21,-15,0,-20,-22,-15,-12,-10
7196947223,-1,-44,-18,-23,-2,3,2,0
7196955475,1,11,-6,-1,19,16,7,0
7196955475,-8,-13,-1,10,11,-6,3,-3
7196970423,9,2,20,41,-19,-8,-8,1
7196970423,-19,-29,-23,-32,10,-12,-3,-12
7196971153,0,-5,-1,-18,-3,9,7,2
7196971153,-4,1,-1,-8,-7,-9,2,-3
7196984791,4,-2,-2,22,3,0,4,0
7196984791,7,14,12,22,28,10,6,6
7196992288,-8,0,-28,-6,-13,6,6,-1
7196992288,-10,16,5,-22,-17,-11,-11,-6
7197007310,0,-1,8,-10,3,-2,0,-5
7197007310,-6,-1,6,5,1,7,2,0
7197015464,-5,-3,-16,-12,-22,-11,-8,-4
7197015464,7,9,-1,5,9,2,0,0
7197030470,3,12,6,8,17,9,8,1
7197030470,-8,-1,17,22,-8,-17,-3,-1
7197031132,-8,-19,-20,-47,-13,11,-4,-4
7197031132,0,-1,-8,23,4,3,3,-2
7197044814,4,4,5,-11,3,-3,1,3
7197044814,-1,1,-14,-33,0,0,-1,1
7197052297,2,5,7,18,-19,-11,-2,-2
7197052297,7,11,12,7,8,-10,-1,3
7197067322,2,7,-2,-8,4,19,3,-1
7197067322,5,5,1,8,4,8,6,0
7197075460,-9,-9,10,13,-15,-26,-4,-3
7197075460,3,1,-6,-17,-1,5,-13,-1
7197090450,-7,-11,-1,0,4,3,9,-2
7197090450,0,-3,-2,-15,-14,-2,-9,-7
7197091143,24,10,9,22,11,7,-14,1
7197091143,-13,-5,-3,-8,-2,-12,8,16
7197104853,-11,-17,-10,-9,-11,-6,-6,-8
7197104853,-11,-7,-3,-3,-6,-30,-14,-7
7197112259,0,2,-4,4,0,22,11,-1
7197112259,7,-2,2,-1,0,5,-4,-7
7197127263,9,12,6,2,1,-1,4,4
7197127263,-8,2,8,-6,3,3,6,2
7197135436,-8,-7,-17,4,-1,-10,-8,-4
7197135436,7,1,9,-6,-3,6,5,2
7197150226,0,1,-18,-1,2,-1,4,2
7197150226,7,5,-2,-11,-2,1,-3,-2
7197157970,-14,3,3,11,-5,-2,-1,-4
7197157970,-5,-6,-6,-7,0,6,3,0
7197164764,7,3,4,0,3,-3,-3,0
7197164764,-2,-2,4,7,0,6,1,2
7197172258,-12,-6,-5,0,-1,-4,-3,0
7197172258,8,7,-11,-3,-7,-2,0,-5
7197187260,-15,-2,5,-11,-5,-5,-6,-4
7197187260,14,-1,4,8,-6,0,0,5
7197195465,-10,-1,-1,-3,7,9,10,3
7197195465,-7,-6,-5,6,3,0,-1,-3
7197209750,12,4,7,1,-8,-4,0,4
7197209750,-14,-6,-9,-8,8,5,-1,-3
7197217890,8,7,5,-2,-8,-11,-6,-4
7197217890,12,13,4,-1,-3,4,3,2
7197224741,-1,-7,9,-4,-4,-4,-5,-4
7197224741,-8,2,-15,8,10,4,0,-4
7197232233,-5,-12,-2,3,-6,-5,-3,0
7197232233,-11,7,-2,-26,-4,-2,-2,-4
7197247265,-9,1,9,21,5,1,3,-2
7197247265,15,13,0,-6,-3,0,-4,0
7197255478,3,-11,-6,-11,-5,-10,6,2
7197255478,7,-1,8,17,5,14,-9,-6
7197269675,-10,8,-9,-17,0,9,4,5
7197269675,-3,-4,-5,11,13,6,2,1
7197277906,12,6,-5,6,-5,-12,-6,0
7197277906,4,18,17,-2,-14,-6,-1,2
7197284782,18,3,-34,-24,-4,-7,2,0
7197284782,-30,-18,-7,-17,-5,8,-8,-10
7197292281,-26,-9,20,18,10,-3,-1,-6
7197292281,2,-9,1,23,-13,-17,6,-1
7197307244,4,-7,-19,-23,16,-6,-21,-1
7197307244,11,-5,5,-5,-5,26,16,8
7197315435,14,6,-6,-6,9,12,4,5
7197315435,-28,-25,-10,-10,-14,0,17,-3
7197329686,-17,-27,23,12,-2,-19,-15,-8
7197329686,2,0,-17,-14,-2,1,-6,-5
7197337847,10,2,0,-9,-21,-6,-9,-1
7197337847,7,8,-13,-6,8,-7,-4,-1
7197344786,10,4,0,-9,-35,-2,1,4
7197344786,-4,-5,9,9,3,-15,-1,-3
7197352324,0,-2,-7,-29,-28,-9,-6,-4
7197352324,-21,-7,18,39,40,15,0,-6
7197367181,9,2,6,34,21,8,11,2
7197367181,-9,-15,1,15,15,8,-4,-7
7197375469,2,-1,-10,-23,-3,-27,10,3
7197375469,-2,-6,-12,-19,-11,3,-6,-1
7197389820,-7,-5,9,-9,3,7,1,-6
7197389820,18,18,11,32,2,-2,12,9
7197397918,-8,-1,-5,-6,7,22,1,-2
7197397918,-2,-14,-9,-22,-3,-17,-7,-4
7197412834,-2,0,-9,-9,-12,2,-3,-3
7197412834,-2,-6,5,-2,-4,0,-4,2
7197413638,0,-10,-2,16,5,-8,-8,-3
7197413638,9,17,-2,-16,-21,-1,-1,2
7197427231,-7,-3,-4,7,9,3,5,3
7197427231,2,9,11,-2,4,-6,2,1
7197435344,0,4,2,18,3,6,0,-2
7197435344,2,-1,-11,-10,3,-5,-7,-3
7197449782,5,6,-10,-12,-5,3,-1,0
7197449782,-3,-2,-4,-11,-12,4,-9,-1
7197457949,-1,-1,11,10,2,0,2,-1
7197457949,-2,-8,-6,-1,4,2,3,1
7197472934,1,2,6,0,3,-6,-2,-1
7197472934,-3,-3,-1,-10,-8,-14,0,-4
7197473586,2,0,-3,5,0,19,1,2
7197473586,-1,-3,-1,-4,-2,-2,-3,-2
7197487307,1,11,5,14,11,2,4,1
7197487307,-8,-2,-6,-6,-11,-13,-3,-4
7197495419,-7,-12,-1,-6,0,-1,-16,-5
7197495419,9,-1,-2,2,3,-10,18,0
7197509761,-5,-4,5,2,0,23,5,2
7197509761,-5,-8,-7,-3,-3,-11,-11,-2
7197517968,7,5,-1,-3,-2,-4,6,1
7197517968,8,12,3,3,4,3,-2,2
7197532857,-13,-15,-4,-1,-7,-6,-9,-5
7197532857,-5,-4,-6,-8,-4,-7,8,-4
7197533621,-1,16,4,2,0,-5,-43,2
7197533621,13,-1,-3,-1,-2,-5,11,4
7197547156,1,-5,1,4,2,-7,14,-3
7197547156,-13,-11,-3,-7,-6,4,0,0
7197555428,-3,-15,2,-1,1,11,12,-2
7197555428,6,-6,2,1,3,11,-12,1
7197569742,12,15,8,-6,-10,-12,-3,5
7197569742,9,-11,-34,-11,-2,-10,1,-7
7197577910,-7,-5,20,12,-4,12,11,2
7197577910,30,24,5,20,1,-2,-3,-1
7197592832,-40,9,-23,-33,4,7,4,-7
7197592832,8,3,15,4,-3,0,-3,-1
7197593698,-15,48,13,-19,-11,-13,0,-5
7197593698,-18,-95,-20,37,17,1,-6,-2
7197607285,46,75,15,-5,-8,-11,-6,5
7197607285,18,-31,24,-10,-1,14,7,7
7197615509,-13,82,-15,36,10,1,3,0
7197615509,3,-2,42,-17,5,1,-2,-1
7197629778,-14,-15,-57,-34,-16,-9,-7,-6
7197629778,-21,-22,31,45,-16,-6,-3,-3
7197637996,55,54,-40,-58,4,-2,6,9
7197637996,-35,-46,11,1,-5,6,24,2
7197652239,-15,-11,-12,-21,3,-2,-23,-8
7197652239,-5,55,15,-18,-23,-9,-10,-4
7197661139,-1,-37,9,37,20,14,4,-3
7197661139,4,6,-8,6,14,1,4,7
7197667261,8,-34,12,15,-2,5,6,2
7197667261,-11,-4,-9,4,6,-6,-2,-6
7197676124,-2,-6,11,-10,3,-2,1,-1
7197676124,-10,25,-27,-30,-16,-9,-15,-2
7197689718,2,16,23,28,25,23,10,0
7197689718,18,42,-8,2,-42,-20,13,10
7197698638,-10,-18,-2,-11,-8,12,-22,-22
7197698638,-17,28,6,2,23,5,-12,0
7197712285,-1,-29,10,22,-3,-6,9,1
7197712285,-9,2,-22,-40,6,2,5,-2
7197721109,-6,-55,0,-1,-14,-5,15,6
7197721109,-1,-21,-10,-3,-45,-30,-9,-8
7197727233,-2,-6,8,19,37,15,-5,-4
7197727233,5,-26,0,16,7,5,1,5
7197736121,6,-20,6,2,17,-16,3,-2
7197736121,-14,-9,-4,-43,-23,18,-2,-8
7197749738,-7,-18,7,-15,-14,-23,-1,-3
7197749738,14,3,-17,-19,-2,-9,-5,-4
7197766102,-24,-37,-13,-22,-18,-1,-2,-4
7197766102,1,27,6,27,5,5,1,-3
7197772321,7,-9,15,14,12,-5,-3,4
7197772321,0,-6,-6,-4,17,29,7,-1
7197781099,-11,7,1,7,-2,-11,-2,-2
7197781099,-1,4,-2,-6,-12,-6,-2,-6
7197796092,-9,-4,10,8,-9,0,-6,-5
7197796092,4,14,2,37,33,1,-6,1
7197797669,-9,-7,-12,0,-9,-1,0,-2
7197797669,14,21,-8,-16,16,8,5,2
7197809710,0,-11,-10,-18,-22,-5,-3,-1
7197809710,-8,-3,0,7,1,-10,-9,-5
7197818620,6,-22,-6,-4,1,-1,1,5
7197818620,-6,-2,-3,5,3,-15,8,-3
7197832156,4,5,-4,4,-7,11,-3,-2
7197832156,-7,-17,-5,-16,-3,-4,-7,0
7197841188,5,9,11,26,7,7,11,4
7197841188,-4,0,-5,-8,-4,-3,-1,-1
7197856129,9,4,-10,-2,-2,-15,-19,-1
7197856129,-4,7,0,0,-1,6,15,4
7197857630,-5,-1,3,-7,-4,-4,-12,-5
7197857630,-5,-13,-8,-2,-3,-5,-3,-2
7197869733,-13,-15,-6,0,-1,-6,8,1
7197869733,19,-7,-8,-8,1,21,-5,-9
7197878625,-6,-6,2,4,5,-8,-9,12
7197878625,12,-3,-5,1,5,6,-15,-2
7197892233,-18,2,-1,4,-6,1,4,-5
7197892233,12,-13,-7,-10,-5,-16,6,3
7197901113,-4,6,-3,-2,-3,-1,2,-3
7197901113,-15,6,3,7,0,-4,-7,1
7197916005,5,4,-2,-5,-5,-1,1,0
7197916005,-7,10,3,1,3,-2,-22,-5
7197917594,11,-3,-5,-2,-1,-19,26,0
7197917594,2,14,7,4,1,33,6,4
7197929759,-6,-23,-8,-1,-3,-6,-7,-3
7197929759,-3,-16,-4,-3,-1,0,9,2
7197938618,0,8,5,5,-3,-10,-1,2
7197938618,-9,13,5,-11,-8,3,3,-4
7197952261,7,5,-8,-5,-4,-5,5,1
7197952261,-6,1,-5,14,15,6,-4,-5
7197961097,-11,-15,-4,0,-9,-1,-5,-4
7197961097,8,11,0,-1,3,-3,-1,3
7197976118,7,4,0,0,-5,1,-4,1
7197976118,5,6,5,-4,-9,-8,-6,1
7197977632,-4,2,-21,-21,-10,1,-8,-6
7197977632,-11,17,2,21,9,4,6,-1
7197989632,-15,-24,3,9,13,2,5,-3
7197989632,11,30,13,14,-4,-7,-5,4
7197998594,17,5,-3,-14,-4,3,0,3
7197998594,0,2,-10,-14,-14,-11,-13,0
7198012217,-6,-11,-9,-6,5,5,4,-2
7198012217,14,37,10,11,-3,-4,-1,5
7198021094,-28,-16,7,4,2,-8,-3,-5
7198021094,0,-12,0,-10,-2,7,7,-1
7198036082,25,8,-7,3,-2,5,-8,1
7198036082,-31,-2,8,-9,-1,-1,2,-5
7198037600,15,5,-9,-8,-4,8,-3,0
7198037600,3,0,-3,10,8,-8,22,-2
7198049704,-9,31,16,5,-9,3,-19,-4
7198049704,-9,-17,-19,-18,-17,-23,-8,1
7198058703,0,10,0,2,6,13,3,-3
7198058703,3,-4,0,16,18,0,-7,1
7198072254,5,2,1,-6,-15,-5,4,4
7198072254,-2,-4,7,12,9,17,-1,-4
7198081082,-5,-3,-2,-1,-4,-10,-9,-2
7198081082,-6,-23,-6,-7,-1,-5,-11,-11
7198087259,4,-8,4,-8,-22,-10,-4,0
7198087259,2,-11,-1,0,9,-3,0,0
7198096116,-1,-6,2,4,-1,12,-3,-3
7198096116,-5,-18,-8,-22,1,0,1,1
7198109756,-2,-2,-8,22,6,-12,0,0
7198109756,-3,-14,1,-10,-13,6,4,-1
7198118584,14,-5,-1,10,3,-2,0,0
7198118584,5,-5,-5,-18,-28,-28,-9,0
7198132232,-19,2,-10,-3,16,19,8,-3
7198132232,5,-11,2,14,16,3,6,2
7198141069,0,-7,10,21,11,8,2,0
7198141069,1,2,-5,-7,-12,-6,-8,-2
7198147257,6,7,3,-2,-11,-8,5,3
7198147257,-7,-1,-6,-24,-10,-2,-6,-5
7198156087,-2,-3,-10,-3,4,-10,-6,-4
7198156087,-1,1,-1,3,-1,4,-2,-1
7198169742,13,9,1,4,6,-4,9,1
7198169742,-8,7,4,-4,0,13,-16,-2
7198178614,-13,-16,-3,-6,-4,1,3,-3
7198178614,17,10,1,0,0,-2,-1,2
7198192230,-15,2,1,-5,9,1,3,-1
7198192230,0,-8,-4,-7,-9,-9,-5,-5
7198201125,4,-1,1,7,4,0,14,6
7198201125,-2,3,3,15,0,-4,-5,-1
7198216099,4,1,-6,-22,-10,1,2,-1
7198216099,-4,-3,0,-8,3,-3,3,-2
7198217628,1,7,6,3,0,4,-3,-3
7198217628,-1,0,8,6,1,2,5,3
7198229721,-1,-2,0,11,8,-1,2,0
7198229721,5,-6,-9,3,-9,-2,4,0
7198238601,13,7,-1,-10,0,-1,-7,1
7198238601,-20,-4,8,5,-3,2,0,-2
7198252257,7,1,-8,-22,-4,-1,-11,-2
7198252257,3,2,-1,11,4,-11,-1,1
7198261100,12,5,-2,-8,-8,9,6,3
7198261100,-8,-5,-5,6,15,13,-9,-2
7198276060,-7,-6,-1,-3,1,-1,-2,-3
7198276060,-1,5,5,14,8,0,3,-2
7198277577,-3,3,3,-2,-6,-12,-5,0
7198277577,9,-9,-4,-14,-9,-20,-9,-1
7198289736,4,-2,2,2,4,19,11,3
7198289736,-21,-16,-6,-4,4,5,0,-4
7198298589,-12,-6,-2,8,-4,-4,-1,-7
7198298589,4,-2,-2,3,3,4,3,2
7198312983,8,8,4,4,0,-14,0,0
7198312983,0,-1,-2,-5,-4,-1,2,0
7198319684,-7,-6,2,-6,-13,-15,-10,-3
7198319684,-8,2,3,-6,-1,6,8,-4
7198336129,-5,-3,-7,9,4,0,-2,-2
7198336129,4,-6,-3,-19,-7,-2,2,6
7198337628,-4,1,4,21,20,2,1,1
7198337628,4,-2,-1,2,-7,-8,-4,-1
7198349709,-3,-7,-2,-5,-2,2,-1,-2
7198349709,-7,-8,-3,0,-12,-7,-2,-1
7198358614,8,1,3,-15,-8,1,-13,-4
7198358614,0,-2,-6,-1,4,-7,1,3
7198372934,-16,-4,-2,-3,-11,-1,-7,-4
7198372934,7,10,-8,-5,11,5,7,-1
7198379709,-5,-8,2,4,9,11,6,0
7198379709,8,4,2,-2,0,8,0,1
7198396064,0,3,-5,-12,-8,-13,-7,-2
7198396064,1,4,-1,1,0,-6,-3,2
7198397600,4,2,2,-2,-8,-1,2,0
7198397600,-9,3,2,3,5,6,4,-2
7198409716,2,-6,-5,-9,-5,-5,-2,2
7198409716,-1,1,-1,3,0,4,-1,-4
7198418588,-7,0,-8,-3,3,-3,-1,0
7198418588,6,5,2,-4,-14,-6,-2,0
7198432857,1,1,1,4,7,4,3,0
7198432857,-6,2,0,11,13,5,-2,-3
7198439814,1,3,-2,-14,-12,-3,-3,1
7198439814,1,-10,-3,5,-2,-4,-1,-3
7198456111,6,2,-5,-4,-10,-4,-2,-2
7198456111,-15,-14,1,5,11,6,2,1
7198457626,-13,-6,-5,-1,4,2,2,-3
7198457626,0,8,-2,-5,-1,-4,-1,-3
7198469710,-2,-6,5,8,6,3,-3,-3
7198469710,6,1,-3,-10,-14,-15,-4,-3
7198478598,6,7,6,5,-5,13,3,2
7198478598,-3,2,-1,-7,11,4,-7,2
7198492935,0,-3,-4,5,0,1,5,1
7198492935,-9,-7,-4,-8,-6,-11,-6,-3
7198499710,-3,-2,-4,-6,-3,-5,-4,-4
7198499710,3,9,3,9,0,1,2,-2
7198515996,-6,-2,1,1,4,-3,1,3
7198515996,6,-3,4,-2,-8,5,1,1
7198517565,0,0,-3,-5,-3,-5,-3,2
7198517565,3,-10,1,4,8,3,-2,-1
7198529734,0,1,1,-1,-2,-2,0,-5
7198529734,-13,5,-6,0,1,3,1,-3
7198546116,7,-4,1,1,-5,0,-4,0
7198546116,2,0,-7,-3,-4,-3,0,-1
7198552882,-1,-4,2,-9,-9,-4,-3,0
7198552882,2,12,6,4,4,-5,-3,-1
7198559737,-2,-5,-2,-5,-2,6,4,1
7198559737,8,0,-5,0,-1,1,0,-1
7198576496,0,2,-3,6,6,1,-1,-1
7198576496,-10,-11,-2,1,-3,0,-2,-2
7198578018,3,2,1,-3,5,-1,-1,-3
7198578018,-2,2,3,4,-11,-5,-3,-1
