timestamp,emg1,emg2,emg3,emg4,emg5,emg6,emg7,emg8
7366182160,16,7,49,31,-4,-3,-1,-1
7366182160,-3,14,-56,-60,-2,0,0,1
7366183005,18,16,-11,-2,-9,-4,-1,2
7366183005,-16,-82,-19,-6,3,-4,-6,-5
7366186532,2,27,3,-16,-7,0,0,-2
7366186532,-2,11,29,34,0,2,2,0
7366187218,-1,1,1,-15,1,0,-2,-2
7366187218,12,-16,-23,-11,-9,-3,-1,3
7366193709,-10,-22,-6,-7,0,-2,-5,-1
7366193709,-2,30,21,7,-8,-5,-7,-6
7366201581,-11,-13,-16,-10,-5,-2,0,-2
7366201581,5,44,23,29,18,12,10,6
7366219491,-12,-7,-15,-4,5,3,1,-4
7366219491,14,-21,-8,-6,-2,-3,-1,4
7366223034,2,24,25,17,-1,-3,-3,2
7366223034,-16,36,-13,-19,-12,-8,-10,-11
7366234293,-17,-19,-23,-5,5,3,0,-1
7366234293,8,25,15,17,8,4,10,3
7366237921,-1,24,-2,4,2,-1,-5,1
7366237921,0,16,10,-6,-12,-4,8,-5
7366254617,-5,-1,-18,-9,-10,-26,-48,4
7366254617,-4,-39,5,4,13,15,1,-8
7366261611,-6,-36,-1,-17,-23,-1,-6,-2
7366261611,23,10,-1,20,0,14,8,4
7366301187,0,0,7,-34,18,1,6,-1
7366301187,-1,-13,-4,-2,12,-3,2,1
7366302030,-12,-25,2,-1,-27,6,2,-2
7366302030,-2,-10,-12,-31,-5,-16,-12,-2
7366302805,0,-7,2,43,9,-4,-1,-2
7366302805,9,-7,12,9,3,7,3,0
7366305313,1,-4,-8,-7,4,6,3,-1
7366305313,-16,-12,2,-1,-7,-5,-2,-8
7366314149,-1,-15,-3,-20,-19,-7,-6,0
7366314149,-3,-8,-8,2,-14,-11,-9,-4
7366320336,0,3,9,28,20,-9,-1,-4
7366320336,1,-8,-4,-17,-21,10,2,-2
7366336766,0,4,11,24,20,8,9,3
7366336766,1,5,-15,-31,-3,2,2,1
7366342824,3,2,0,-2,0,-6,-3,0
7366342824,-5,-4,1,8,3,0,-4,-4
7366351636,8,-1,-2,0,-9,-8,-3,0
7366351636,-3,14,18,26,1,13,10,3
7366357759,-13,-9,11,-16,-5,-7,-5,-8
7366357759,-5,-11,5,19,18,-1,6,2
7366374234,-3,-6,-7,-18,-10,5,0,1
7366374234,0,0,2,4,0,-8,-4,-4
7366380256,15,14,-9,-14,-1,2,-3,4
7366380256,-10,-3,13,25,4,-2,0,-5
7366396715,-6,1,6,-8,2,-11,-4,-3
7366396715,-8,-3,-15,-5,1,11,1,-2
7366402802,6,1,-16,-14,-6,0,1,1
7366402802,12,7,7,20,-8,-3,-2,1
7366411707,-2,3,-24,-32,-7,-4,-5,-1
7366411707,-2,-1,4,11,1,-5,1,-1
7366425284,-5,1,1,-1,-2,0,-2,1
7366425284,5,4,2,4,14,0,3,4
7366434184,-3,2,-2,8,-11,2,-12,-7
7366434184,-6,0,-2,-13,-4,-12,-4,0
7366440348,1,-2,0,7,7,0,-5,-2
7366440348,-1,5,-11,-10,-3,-12,15,-5
7366456680,-6,-2,-1,5,-1,12,-3,2
7366456680,18,1,-5,-9,-4,6,-6,7
7366462733,-5,1,5,5,-1,-1,9,1
7366462733,-14,-17,-2,-2,0,-12,-1,-1
7366471691,-2,-9,-1,1,-1,-7,1,-6
7366471691,-2,-5,-2,-3,-2,1,-5,-4
7366477819,8,0,1,4,3,-2,-5,1
7366477819,-2,11,-5,-10,-3,-1,-4,-3
7366494185,8,-5,-3,3,-3,-4,12,0
7366494185,-3,-12,5,1,2,1,-34,-2
7366500283,-39,-14,-9,-3,-4,-2,3,-6
7366500283,13,-3,-7,-10,-2,11,-4,6
7366515241,-1,-1,2,4,-1,-6,-6,0
7366515241,4,3,1,0,0,-10,14,-2
7366522810,22,4,-5,-5,-5,-9,-3,2
7366522810,5,5,-3,-7,-4,14,-6,0
7366531676,-14,-6,1,3,2,-4,-1,-4
7366531676,-14,0,-2,1,3,5,15,1
7366537690,6,5,1,3,3,4,-5,-3
7366537690,10,12,6,1,-1,-5,1,1
7366554192,-3,11,3,-9,-8,-4,-4,2
7366554192,-29,-3,-25,-6,-2,-5,-2,-13
7366560309,10,-38,-1,2,-1,-1,2,1
7366560309,7,9,11,11,0,-3,-4,2
7366569216,-14,21,1,5,3,3,-1,-3
7366569216,6,-15,-17,-17,-2,-2,2,3
7366582834,13,54,9,-9,-13,-5,-4,0
7366582834,1,-37,17,5,-2,-1,-4,-6
7366591684,-13,-34,-10,5,5,6,2,1
7366591684,14,-6,1,-34,-16,-8,1,4
7366605282,8,19,-15,13,14,3,1,-2
7366605282,2,20,-20,-24,-7,-2,-4,1
7366614243,-7,-11,-2,2,1,6,3,-7
7366614243,-18,-16,5,0,-5,-4,-3,-4
7366620310,15,-19,4,1,-3,-1,-1,1
7366620310,-32,18,0,3,5,0,0,-2
7366629179,3,-6,-9,-2,0,-1,-4,-5
7366629179,8,9,1,-3,-8,-5,-2,-5
7366642783,-4,3,12,7,2,4,-5,3
7366642783,6,4,-8,1,-3,-3,1,-2
7366651668,9,9,2,-9,-6,-16,5,2
7366651668,7,9,8,6,-3,1,-5,0
7366665285,-35,-3,-1,12,13,7,8,0
7366665285,11,2,-3,-6,12,32,6,5
7366674188,5,-4,7,23,16,-12,-11,-2
7366674188,1,4,-4,-8,-12,-3,6,-4
7366680288,4,-13,-10,-10,-1,-11,0,2
7366680288,-12,-13,-1,-1,-7,5,12,6
7366689190,6,7,16,14,19,15,-4,0
7366689190,15,6,-7,-2,18,0,-1,0
7366702722,-24,-2,-2,-20,-30,-22,-15,-11
7366702722,-6,-28,-12,-10,3,-1,4,-3
7366711669,2,2,6,8,-9,-2,-5,-1
7366711669,-2,0,11,34,33,10,2,0
7366734135,0,-11,-11,-18,-23,6,-3,-5
7366734135,10,14,-13,-41,-23,-8,-6,-1
7366735641,-9,-12,-8,-3,8,-10,-1,-3
7366735641,-3,-9,21,18,-12,8,6,3
7366740307,-5,-10,-24,-13,1,15,4,-2
7366740307,-13,-13,1,19,8,-10,-11,-10
7366749193,18,14,-16,14,-4,-1,3,7
7366749193,-14,-8,7,-22,3,-4,-2,-7
7366762836,-2,-2,14,-4,-9,-6,-3,-1
7366762836,1,-6,-4,8,8,0,-1,-1
7366771659,13,2,-9,-13,-8,-6,6,6
7366771659,0,3,0,12,8,6,-10,-3
7366785280,-5,15,10,21,-2,5,14,2
7366785280,-7,7,-2,0,-2,-1,-31,-8
7366794169,-7,0,1,-14,-12,-7,-8,-3
7366794169,0,7,-7,0,-5,-2,2,0
7366800255,7,-1,0,2,18,-10,-2,-1
7366800255,7,6,-1,6,-4,0,7,2
7366809134,-6,-11,2,-10,-10,0,0,-2
7366809134,6,9,3,2,-4,3,2,2
7366822781,0,-6,-1,0,12,2,-17,-2
7366822781,-5,-13,4,8,-1,-12,5,-1
7366831689,14,3,1,-8,-10,-12,-4,2
7366831689,-3,4,-2,-8,-3,2,21,2
7366845222,2,-2,2,3,2,7,9,37
7366845222,-2,-2,-2,-2,0,3,4,-44
7366854174,-32,-10,6,-2,2,26,11,-4
7366854174,-1,-2,-3,7,-2,-21,-14,-9
7366860191,-3,1,-4,-3,0,2,-10,5
7366860191,14,1,2,-3,0,-1,-4,13
7366869118,2,-5,-4,-7,-1,-5,2,-1
7366869118,12,-23,0,4,-4,1,10,-4
7366882788,-13,-24,-1,-2,-1,-2,-2,-7
7366882788,-4,-5,2,-2,-2,-8,-3,5
7366891667,-1,-5,-3,-1,-3,-1,-2,-6
7366891667,7,-4,-8,-3,-3,-15,-16,11
7366905288,23,24,3,-1,1,17,12,-9
7366905288,-13,11,3,1,0,-4,-6,6
7366914163,-6,-4,-1,-8,-2,5,10,2
7366914163,-9,11,-1,6,-1,2,-13,-3
7366920278,-29,-6,-10,-15,-3,-9,2,-11
7366920278,7,-14,-13,10,1,-1,-1,-2
7366935294,45,14,13,19,2,6,-2,15
7366935294,-9,13,17,1,-6,-8,-7,1
7366942795,-2,-17,-28,-20,-10,-5,-10,-11
7366942795,-12,-29,-19,-6,9,1,6,0
7366951616,-14,-5,12,-18,-16,-9,-9,-6
7366951616,31,20,-14,26,13,5,4,6
7366965298,17,9,1,-7,0,7,7,6
7366965298,-9,100,18,40,26,5,3,6
7366974187,23,50,26,8,-13,0,6,11
7366974187,-52,-111,-12,3,-6,-10,-10,-19
7366980284,5,-21,-29,-18,-9,-14,-10,-10
7366980284,14,35,-17,-12,-21,-7,-2,2
7366995293,6,91,11,7,20,9,1,4
7366995293,-10,113,30,-1,-12,4,6,-4
7367002809,29,46,29,17,16,1,-12,6
7367002809,-15,-77,-19,-38,-9,-8,-11,-5
7367011627,-3,27,-14,-7,-9,-5,-6,-7
7367011627,-13,-17,-3,-11,-7,-4,5,6
7367025307,-12,15,-2,1,3,-3,9,-6
7367025307,17,7,40,-1,-11,3,-4,6
7367034142,-11,-37,-30,-18,7,0,-3,-5
7367034142,13,2,7,5,-12,-5,-2,3
7367040302,8,1,-15,0,14,15,7,2
7367040302,-12,18,2,6,4,-10,11,4
7367055257,-13,-31,-11,7,6,-12,-10,-9
7367055257,4,13,-11,5,-5,10,-6,-5
7367062763,-8,8,16,3,-7,3,-2,-2
7367062763,5,-42,4,3,-6,-5,3,-2
7367071669,-1,-26,-14,-39,8,-4,3,1
7367071669,2,-20,-2,55,9,7,0,-2
7367085330,-5,-17,14,37,6,-8,-1,-1
7367085330,-17,-18,4,-5,-19,-5,-5,-8
7367094140,-6,-27,-18,-29,7,14,2,0
7367094140,-5,-4,-11,-25,20,-3,-1,-1
7367100270,6,-9,-3,-9,-1,-10,-1,-3
7367100270,1,1,-8,15,-19,-1,-4,-1
7367115261,-9,-1,6,11,-10,-8,-8,-11
7367115261,8,-1,-12,-47,5,3,2,3
7367122759,-24,-8,8,15,-1,-10,-12,-11
7367122759,20,34,13,5,1,-2,7,5
7367131650,-7,-18,-19,30,9,2,1,2
7367131650,6,-2,-4,-13,1,7,5,0
7367145271,7,24,26,2,-11,9,6,6
7367145271,-5,4,-29,-45,18,4,-4,-2
7367154189,3,-7,-14,-3,-10,0,3,2
7367154189,0,9,9,0,-5,-5,-4,-2
7367160286,-13,7,12,-13,-15,-6,-4,-6
7367160286,1,-12,-1,11,17,4,8,3
7367175267,-6,-4,9,27,7,0,-6,-6
7367175267,4,2,0,-10,-2,-6,0,-2
7367182801,-7,-19,4,22,-6,-9,-5,-1
7367182801,7,-8,-16,-33,-6,0,-2,6
7367191665,-11,-6,10,1,1,1,-5,-7
7367191665,1,4,6,13,4,2,3,1
7367205261,6,3,-2,5,2,-2,1,2
7367205261,-2,4,-5,-6,4,8,5,-3
7367214160,3,-2,6,8,-13,8,-6,0
7367214160,-12,-14,-14,-12,-7,-18,-2,-2
7367220169,-8,-8,-16,-7,9,9,8,-2
7367220169,15,6,7,12,-9,-6,-9,2
7367235214,-10,-5,1,-8,-6,-28,-1,-5
7367235214,3,-6,0,1,0,7,3,2
7367242756,20,-7,-1,-7,3,14,-26,6
7367242756,-16,-12,-2,4,-4,-5,-14,-7
7367251617,-1,-1,2,-6,-2,4,5,0
7367251617,-22,-10,-8,-13,-4,-4,-1,-5
7367265288,-1,-3,-3,-2,-1,-7,1,-2
7367265288,13,1,8,4,2,4,9,-1
7367274166,6,15,0,0,0,-9,11,4
7367274166,-4,-4,-3,0,-5,11,-21,-2
7367288374,-17,-19,-11,-6,0,0,8,0
7367288374,-10,8,6,5,0,-3,-4,-5
7367295265,10,-1,1,-3,-4,0,0,-1
7367295265,4,12,5,-1,0,-3,5,5
7367311644,-9,-16,-13,-9,-4,-10,-4,-4
7367311644,3,-2,-2,0,1,4,2,0
7367313118,9,19,7,6,2,7,-4,2
7367313118,-4,-11,3,0,-3,-1,5,-3
7367325248,-13,-10,-9,1,8,2,3,-1
7367325248,-5,-8,-9,0,0,-1,-3,-2
7367334126,-4,24,12,0,-3,-1,-5,2
7367334126,-1,-10,-17,-8,-7,-9,-4,-2
7367348380,2,3,-6,-21,-10,-8,3,-7
7367348380,5,12,19,42,13,5,1,0
7367355257,1,-23,8,10,6,11,8,6
7367355257,-9,-46,-38,-48,-18,-10,-4,-5
7367371593,12,45,6,15,9,3,4,3
7367371593,-14,-64,-22,-13,2,-1,-5,-3
7367373096,-7,-18,18,32,-4,-4,-8,-4
7367373096,-3,25,-21,-14,-3,4,1,-3
7367385288,37,56,2,-63,-12,4,3,4
7367385288,-31,1,5,14,12,5,5,-1
7367394105,0,-11,-15,-8,-4,0,-4,-5
7367394105,4,-76,4,19,1,-2,1,-4
7367408484,25,53,34,8,-7,-2,-2,7
7367408484,3,8,-4,-3,-6,-4,-4,-1
7367415279,-20,-15,-8,-19,-11,-5,-1,-6
7367415279,12,35,8,-8,2,2,-4,1
7367431637,8,-19,5,50,11,1,3,0
7367431637,6,-2,-2,-21,-8,-4,-2,5
7367433156,-15,-5,-19,-12,0,0,-5,-4
7367433156,10,14,9,1,-2,-3,-4,-1
7367445280,-13,-20,-9,-9,-7,-9,-3,-3
7367445280,-9,20,11,18,7,5,-1,0
7367454132,13,9,-1,-17,7,11,10,4
7367454132,5,1,0,35,26,0,0,-3
7367468369,-13,-5,-3,-9,3,-1,-9,-5
7367468369,-2,-12,-1,-12,-31,-12,-1,-3
7367475263,-4,10,8,-11,2,-13,-5,1
7367475263,-2,7,-16,-12,-2,21,3,-1
7367490614,-19,-26,2,19,23,7,8,-2
7367490614,16,10,1,-5,20,-2,2,-1
7367499093,-2,-5,4,-5,-7,-10,-6,-2
7367499093,-7,5,7,7,-36,-17,-10,-2
7367505216,-8,-25,-18,-8,2,-17,-2,-4
7367505216,13,11,2,-3,-6,19,0,2
7367514121,-3,-8,-3,2,6,-7,-2,-10
7367514121,-8,-1,8,4,3,-1,2,0
7367528439,-19,-30,24,20,-23,14,3,-6
7367528439,9,8,-21,-56,11,-7,-3,2
7367535136,3,-13,-10,1,3,1,0,0
7367535136,-2,18,-1,-1,1,5,2,0
7367551473,-3,1,11,-1,-45,-20,-11,-6
7367551473,-1,-3,-6,35,23,1,-3,-5
7367553070,-5,-17,-12,27,-5,7,-1,-3
7367553070,4,7,-7,-24,4,-1,7,3
7367574079,6,9,-1,26,24,3,5,5
7367574079,-11,-3,8,-51,-39,-8,-3,-9
7367575639,11,13,-34,14,23,-6,-2,3
7367575639,-6,5,28,26,9,1,1,1
7367588383,11,6,-10,-12,5,6,9,5
7367588383,3,9,1,21,-6,5,3,4
7367595234,-2,-2,8,-5,-4,2,5,2
7367595234,-1,16,14,4,-9,-20,-7,-4
7367611580,0,-7,-14,-10,4,4,2,1
7367611580,0,10,-3,-12,-7,-15,-7,-1
7367613094,-8,13,18,-6,-9,9,-3,-5
7367613094,13,8,-5,0,4,-5,2,6
7367634149,-3,-7,-20,-18,-4,0,-13,-7
7367634149,-9,-14,-5,6,-4,5,9,0
7367635663,4,-8,10,-4,-8,-20,-2,-5
7367635663,13,-20,1,1,9,16,-36,6
7367647742,-16,-31,-6,-6,-2,-7,13,-3
7367647742,-17,-34,1,9,0,-6,6,-1
7367656623,-4,18,3,-3,-4,7,-3,0
7367656623,-15,-2,2,-10,-2,3,31,-3
7367671638,8,13,0,-2,-6,-15,-6,-1
7367671638,11,19,5,14,10,6,-6,3
7367673151,6,-6,-5,-7,-1,6,7,4
7367673151,-6,-10,-4,1,-1,-10,-3,-3
7367694043,0,5,2,-3,2,11,-7,2
7367694043,-4,-3,8,5,-5,-12,5,-1
7367695580,17,-6,-7,-12,-7,-3,-7,1
7367695580,-2,6,-2,-13,-1,4,2,0
7367707650,-11,-6,-6,15,7,0,3,5
7367707650,-4,20,5,14,-7,0,-11,-4
7367716648,-6,-20,-3,-11,4,1,-2,-2
7367716648,7,3,-5,-9,-10,3,-2,-1
7367731632,15,13,8,-17,11,4,3,2
7367731632,-5,-6,-17,10,5,-2,-2,1
7367733123,4,18,18,20,0,7,-1,2
7367733123,-10,-1,-15,-15,0,-6,3,-7
7367754102,-2,-8,-4,-28,-20,-8,-9,-3
7367754102,1,-34,-5,24,5,2,0,2
7367755592,-3,62,4,-19,-8,-9,-4,-2
7367755592,-15,-38,-17,-12,9,9,1,-4
7367767761,-5,10,-2,21,7,3,1,-4
7367767761,9,39,10,-14,-5,0,-2,3
7367776616,-2,-44,-10,0,-2,1,-2,2
7367776616,4,-11,6,3,-8,-9,-4,-1
7367791609,-20,22,9,4,-4,1,1,-7
7367791609,-26,-52,-7,-10,-1,-3,-2,-3
7367793099,6,-4,-10,-17,-5,0,-2,-8
7367793099,4,28,26,45,16,1,18,6
7367814098,-3,-38,-19,-21,-3,-2,-24,-7
7367814098,20,48,26,12,-11,-6,-2,7
7367815597,-18,2,-29,-21,2,11,3,-2
7367815597,0,3,-3,-1,-6,-1,0,-3
7367828399,10,3,7,9,-10,-4,4,1
7367828399,2,13,-13,5,27,4,1,-3
7367835219,6,11,10,-1,-8,-12,-15,-2
7367835219,-2,10,-4,-1,-3,11,-4,-3
7367850905,3,6,5,-2,-8,-8,4,5
7367850905,9,-6,-5,-13,1,-5,-7,-4
7367857801,9,-30,-2,-3,-8,7,9,5
7367857801,-42,0,10,-2,-2,-6,-8,-10
7367865248,-10,-14,-18,7,15,-1,-3,-1
7367865248,2,-25,-5,-17,-20,1,5,-1
7367874107,-4,6,1,10,20,-17,-2,-1
7367874107,15,6,2,-4,-16,11,-4,3
7367888429,-5,-10,6,5,7,3,2,2
7367888429,5,-2,-8,-13,-16,-5,-2,-4
7367895229,-6,6,-8,-23,0,0,0,-5
7367895229,-8,-25,-2,9,-6,-21,-6,-4
7367910888,24,0,4,-1,-4,-3,-2,1
7367910888,-4,14,-8,0,0,8,1,-4
7367917685,-10,-20,27,20,-1,3,0,-1
7367917685,23,6,-29,12,23,-4,0,5
7367925260,-9,6,9,49,-13,-6,1,-4
7367925260,-7,-11,-8,-27,26,16,5,-1
7367934112,-2,-1,10,40,-23,-9,-2,0
7367934112,-6,-13,2,-34,12,8,0,-3
7367948311,-6,-8,-3,-16,-19,-18,-5,-5
7367948311,8,0,0,1,6,-6,-1,3
7367955262,-8,2,7,39,19,25,5,-1
7367955262,1,-7,-6,-22,0,-1,3,4
7367970942,3,6,-4,-12,-8,0,-1,-1
7367970942,-1,6,7,-12,-8,-7,-2,-2
7367977788,-4,-3,6,-2,-2,-11,-6,-5
7367977788,0,-4,23,22,-23,-10,-8,-2
7367985258,-9,-8,-18,-9,40,17,4,-4
7367985258,1,6,5,9,-6,-4,2,5
7367994092,13,14,4,-3,-3,0,6,7
7367994092,0,8,-10,10,3,5,0,-4
7368008412,-1,8,-3,-7,-13,-9,-4,-4
7368008412,-4,0,3,8,-6,-16,-15,-4
7368015216,11,11,-2,-1,3,17,18,9
7368015216,2,15,-10,-17,-9,-6,3,-5
7368030955,-12,-2,2,2,3,2,-10,-5
7368030955,4,-10,-8,-2,-3,-25,0,-1
7368037751,-2,-3,-9,-17,-6,20,-39,1
7368037751,5,6,6,13,1,-2,33,6
7368054111,-3,-26,-7,-13,2,8,5,-6
7368054111,-10,-17,4,2,-4,-15,17,5
7368055609,0,-10,-5,-8,-2,-3,-12,-2
7368055609,6,0,5,1,3,3,1,2
7368068426,6,15,-1,-1,1,3,-24,0
7368068426,-9,4,5,-1,-5,1,22,-4
7368075208,-11,-22,-6,-3,1,-11,-16,-8
7368075208,6,-12,1,-1,-1,-3,13,6
7368090912,-14,-12,0,-4,-2,14,13,0
7368090912,2,-10,-3,2,-2,12,-14,-3
7368097611,-2,-2,-11,-12,-5,-8,7,-3
7368097611,21,3,-2,-5,0,-14,-11,-5
7368121617,9,16,5,4,-2,5,4,9
7368121617,-2,1,1,1,-2,10,0,-6
7368123094,-29,-9,11,7,-1,-3,7,-9
7368123094,-17,-16,-10,-18,-3,-5,-13,2
7368128458,16,38,-13,-12,-4,-7,16,8
7368128458,29,-11,-18,-10,0,10,-10,-2
7368135260,-19,23,19,28,6,-1,8,-1
7368135260,2,30,-10,13,2,3,-15,-7
7368150950,4,-70,3,-7,3,-3,-3,6
7368150950,3,79,-10,-14,-6,-2,-7,-6
7368157769,6,7,-3,4,-7,-11,1,0
7368157769,-21,-11,7,3,-9,0,-4,-5
7368173985,1,-28,28,10,0,-3,0,-1
7368173985,-11,-21,-14,24,19,0,-7,-3
7368175588,15,-9,-6,-21,-6,-2,14,7
7368175588,20,-12,-1,30,-2,4,-11,-1
7368187724,8,65,-22,-34,-3,-5,-5,-5
7368187724,-61,-37,20,-3,-1,8,-2,-9
7368196626,5,-16,-12,13,0,-1,-2,3
7368196626,-2,-40,-19,-35,1,3,5,5
7368210928,13,33,25,5,-12,-9,-7,0
7368210928,-5,-31,1,20,2,6,-3,-4
7368217720,9,12,-18,-34,-6,1,2,1
7368217720,-1,27,11,8,3,-1,-3,-1
7368234109,-8,14,-11,18,-3,-4,1,-2
7368234109,1,24,10,-5,3,3,3,0
7368235575,3,9,-1,-8,1,-10,-8,-6
7368235575,9,-14,-3,-5,-2,-1,5,2
7368247663,-4,1,3,19,17,17,-1,-1
7368247663,-8,4,2,-6,7,-4,0,4
7368256592,-1,-14,4,0,-9,2,-4,-11
7368256592,-31,-8,-11,-41,-12,-5,1,-8
7368270969,19,-13,1,9,4,-12,3,5
7368270969,-8,-20,12,28,-23,8,0,1
7368277791,1,0,-25,-28,12,-9,3,0
7368277791,-1,6,9,25,-13,0,-6,2
7368294112,-11,-28,3,-33,-3,11,4,-4
7368294112,22,-2,6,-1,-2,1,1,4
7368295620,-7,8,-11,-11,33,3,2,-1
7368295620,8,27,17,48,-10,-6,-6,-2
7368307728,-23,-30,-7,-40,-4,0,-7,-9
7368307728,2,1,5,-15,-1,-8,0,-3
7368316609,-24,-23,23,-4,-23,-8,-10,-14
7368316609,-4,-6,-20,-44,1,6,-6,-2
7368330965,1,7,-5,8,14,-21,-3,2
7368330965,10,11,-3,-2,-3,12,12,-3
7368337647,6,-25,-13,10,-4,-2,-19,3
7368337647,-18,-6,6,3,0,-20,-9,-7
7368354015,-5,0,-6,3,-10,18,12,0
7368354015,10,-2,-7,-15,6,7,11,9
7368355548,9,6,-9,4,6,-9,9,3
7368355548,6,8,-4,-7,-3,9,-4,-2
7368367600,-13,-9,-7,-4,-16,-13,-3,-7
7368367600,4,-14,-8,0,7,-9,-3,1
7368376584,10,9,-7,2,-11,5,6,6
7368376584,4,26,19,8,9,0,-4,1
7368390546,-4,-3,-5,1,0,-9,-9,-3
7368390546,-1,3,1,1,-5,5,31,0
7368399138,-5,4,6,2,-4,-10,-16,1
7368399138,7,8,7,10,12,2,20,6
7368414101,-11,-6,-12,-4,-8,6,-4,-5
7368414101,1,-4,4,1,-1,-11,-16,-5
7368415596,2,-2,0,4,-3,-2,-18,4
7368415596,14,-5,-5,-5,4,-2,18,4
7368427577,13,16,8,9,-3,-1,0,2
7368427577,-9,-14,-12,-6,-3,-8,-31,-2
7368436620,-11,-11,-4,0,4,3,14,-4
7368436620,-8,-21,1,-5,-2,4,-1,-7
7368450958,-1,-16,3,9,5,0,10,8
7368450958,1,14,0,1,0,4,-26,-6
7368457804,7,13,4,1,-5,-6,13,3
7368457804,-4,8,-2,-3,-3,-3,-6,2
7368474020,6,1,7,9,4,-7,0,-5
7368474020,12,-9,-4,-5,-3,-3,7,7
7368475570,0,-11,4,1,-3,-4,-3,-3
7368475570,-1,-18,-7,-3,3,-9,-24,-6
7368487761,-19,-3,0,3,1,15,16,1
7368487761,5,2,1,-2,-9,3,-18,-3
7368496570,-7,7,0,0,-2,-5,17,-4
7368496570,-22,-2,7,8,5,8,0,1
7368510881,40,30,4,3,-2,-9,-9,8
7368510881,-45,-37,6,9,2,-3,2,-7
7368517754,-7,37,9,-17,-5,-2,4,-7
7368517754,1,56,3,-7,1,5,4,5
7368534019,-27,-45,-31,18,-9,-9,-12,-10
7368534019,26,16,1,-18,-1,-9,7,7
7368535572,5,-1,-8,-39,-7,4,-13,-2
7368535572,-5,-32,1,7,10,8,5,-2
7368547720,-31,22,27,65,8,6,-1,-10
7368547720,22,-27,-36,-36,-8,-9,-6,4
7368556613,-15,-43,8,-29,-1,-7,-10,-5
7368556613,18,-46,-45,-18,-2,0,7,5
7368570928,18,43,-12,-19,7,4,-2,8
7368570928,-25,54,48,13,-8,-6,5,-10
7368577606,5,10,9,-2,-7,7,5,5
7368577606,-15,-58,-6,-5,2,5,-5,0
7368594113,33,35,5,21,7,5,9,7
7368594113,-15,-11,-30,-52,-9,-8,-33,-21
7368595594,14,17,0,18,-9,-1,5,10
7368595594,0,27,30,1,-32,-22,-17,-11
7368607733,-18,-16,-29,-57,7,4,8,1
7368607733,2,14,0,21,4,13,9,5
7368616586,1,5,-6,21,27,4,3,-11
7368616586,17,32,-2,-2,-17,-5,2,8
7368630809,0,4,16,-5,-15,-34,-15,0
7368630809,-4,5,0,18,8,25,1,-5
7368637736,-20,-23,-7,5,-13,12,-7,0
7368637736,4,0,7,0,23,5,28,8
7368653971,6,-12,5,2,31,-2,4,-1
7368653971,11,-22,-8,2,-7,-4,-6,4
7368655524,0,-17,-4,17,11,-3,3,0
7368655524,-6,-2,-2,-19,-7,5,-11,-5
7368667722,-1,-27,1,11,-5,-9,-9,-6
7368667722,-10,-10,-2,-13,3,-5,13,-2
7368676612,9,-1,-10,-2,-6,3,0,0
7368676612,-2,14,16,32,5,2,-3,-3
7368699080,6,3,-5,-9,9,-4,-1,0
7368699080,-3,6,18,37,-2,1,-1,-2
7368700636,-2,7,2,79,-1,-15,-4,-3
7368700636,-11,-21,-50,-97,-2,6,-6,-9
7368714059,6,15,-6,-5,-21,1,-2,0
7368714059,1,2,-16,0,1,-5,8,3
7368715545,-2,15,17,-32,-33,-18,-9,-3
7368715545,6,7,15,67,49,11,1,0
7368735910,-18,-28,5,-20,-12,14,-2,-11
7368735910,5,-1,-14,0,-15,-9,-1,5
7368736588,-6,-3,-7,-31,5,0,-1,0
7368736588,2,8,2,32,-9,6,6,1
7368758398,-7,2,-5,-41,-13,-1,-5,-6
7368758398,-2,-24,-14,-18,1,-8,-1,-4
7368759079,-10,-21,-5,-6,-4,0,2,-3
7368759079,-1,7,6,6,-15,-11,-7,-3
7368773344,-4,-10,7,26,-4,-3,-4,-1
7368773344,18,23,4,1,3,7,10,8
7368774037,4,5,-9,-16,4,-5,-4,-3
7368774037,-12,-21,-9,-8,-4,-7,-12,-3
7368795908,-2,-1,-3,4,-2,10,3,2
7368795908,-8,3,1,5,5,1,1,1
7368796591,4,-4,-10,-8,0,-13,7,1
7368796591,-1,14,5,13,2,18,-19,-2
7368818420,7,10,0,-3,-5,6,23,1
7368818420,2,6,3,-5,0,-10,-10,2
7368819089,0,-11,-2,12,8,12,11,5
7368819089,2,-12,1,-7,-13,-33,-4,1
7368832692,3,-17,5,2,4,13,-4,2
7368832692,0,-9,-2,4,9,3,-10,-5
7368840198,-6,-5,5,9,2,1,11,-3
7368840198,15,7,9,-4,-6,-3,4,4
7368855724,-2,5,-15,-14,-9,0,4,5
7368855724,-8,-2,12,8,-1,-6,13,-4
7368856590,-19,-6,-9,-3,1,4,-26,-5
7368856590,15,-6,3,-6,-4,5,0,0
7368878361,-13,-13,-3,5,1,-4,0,-6
7368878361,-14,-1,4,0,-4,1,-7,-2
7368879165,12,2,3,3,5,-1,7,5
7368879165,-2,10,-6,-2,0,-2,6,-1
7368892647,7,-4,-1,-7,0,-9,-10,-1
7368892647,5,10,-6,6,0,2,1,0
7368900186,3,6,-2,-11,-3,2,-3,-1
7368900186,6,19,1,13,1,1,2,-2
7368915837,-25,-31,4,9,3,-5,-6,1
7368915837,-5,4,-5,-19,-14,-7,-6,-7
7368916591,24,17,2,13,5,2,-2,4
7368916591,-38,7,-9,-14,-8,-5,-4,-14
7368938266,14,52,8,6,15,6,2,3
7368938266,-25,-24,-5,13,3,5,4,-2
7368939106,9,-20,3,-1,-9,0,-5,3
7368939106,23,49,-33,-27,2,-5,2,0
7368952593,-19,-8,-12,-17,-21,-12,-14,-9
7368952593,21,14,20,24,5,1,0,5
7368960162,17,62,-4,-1,4,4,6,2
7368960162,-42,-30,5,18,4,-2,18,-6
7368975884,18,-33,5,-5,-11,-7,-17,-1
7368975884,8,14,-2,-2,-1,-1,-3,0
7368976568,-43,-16,22,12,-7,3,-2,-9
7368976568,19,-15,-15,-17,5,2,3,7
7368998365,6,38,5,11,4,3,9,3
7368998365,-1,-38,-25,3,-3,-6,0,-6
7368999040,-1,3,0,-6,0,-2,-11,-3
7368999040,-9,-7,-1,-9,-5,-6,1,1
7369012732,-6,-24,5,8,-2,18,-6,-4
7369012732,16,38,4,8,-3,-8,0,8
7369020210,-11,0,-24,-31,-4,6,3,-3
7369020210,13,-39,7,13,14,3,10,2
7369035880,-2,22,-6,-16,-30,-14,-20,-2
7369035880,-4,-5,14,16,17,6,4,-2
7369036565,-4,-17,-13,-21,-21,-9,-10,-3
7369036565,-15,-16,16,17,16,-2,2,-3
7369051578,7,-2,-4,5,6,5,11,-1
7369051578,-6,-27,-7,-15,-9,-15,-11,-1
7369057751,10,-10,-4,-27,22,10,13,8
7369057751,-3,20,9,16,4,-1,-6,2
7369072739,-5,-19,3,15,20,7,-5,-13
7369072739,6,-9,-5,-22,-24,-9,-4,-2
7369080229,4,5,2,2,3,-2,0,1
7369080229,4,-8,0,-7,-45,-7,-14,-3
7369095811,-4,-8,-12,-15,14,-2,5,2
7369095811,-1,11,-7,26,11,9,5,0
7369096635,4,2,39,65,21,5,-3,-2
7369096635,-13,-24,-30,-74,-15,-5,-5,-8
7369111537,14,8,-4,-34,-40,-5,6,5
7369111537,-14,-12,-15,-1,28,2,1,-2
7369117727,-13,-21,11,34,-10,-2,4,-8
7369117727,13,17,20,12,5,6,1,5
7369132725,-3,-9,-34,18,-3,-18,-4,-5
7369132725,2,2,3,-49,-9,-6,2,-1
7369140103,5,17,-6,3,9,29,11,3
7369140103,-4,5,11,34,-17,-3,-3,-1
7369155809,9,10,4,-26,16,3,-5,5
7369155809,-15,-10,18,-3,0,11,3,-6
7369156594,5,-11,-18,11,0,-7,-3,1
7369156594,11,2,-10,-22,-2,-7,-5,-1
7369171546,-10,7,16,21,6,4,4,2
7369171546,4,12,12,6,-1,-14,-1,3
7369177720,4,11,4,-20,-8,6,3,-2
7369177720,-3,6,3,6,0,-6,-13,-3
7369192633,-9,2,12,-2,3,-4,12,0
7369192633,4,10,-1,1,-7,21,-3,3
7369200172,-4,3,-21,-11,-7,-29,-4,-16
7369200172,14,12,-1,6,10,20,-21,18
7369215838,3,1,-1,3,-3,-29,1,-3
7369215838,35,4,2,8,13,42,14,0
7369216548,-47,-21,8,0,-12,-7,40,5
7369216548,-30,-44,-3,5,7,-9,-7,-10
7369231553,-4,-46,-3,-12,-13,1,-35,-8
7369231553,-3,-18,-6,-6,-6,-8,-1,5
7369237641,14,-8,-3,-1,15,22,-4,-1
7369237641,14,13,3,9,2,9,22,0
7369252667,4,5,-1,-1,-4,-5,-10,1
7369252667,3,0,-5,-7,-14,-34,-4,-1
7369260210,6,-14,-6,-9,-5,1,-16,-5
7369260210,2,18,4,2,3,2,-1,6
7369275863,-8,5,14,10,-1,3,12,-1
7369275863,-13,3,-16,-5,0,-2,-11,-2
7369276544,16,5,-6,-13,-8,-12,-10,3
7369276544,-30,24,3,8,6,4,6,-9
7369291587,-14,-15,-9,-9,1,3,-5,-4
7369291587,9,28,15,21,6,4,8,5
7369297726,1,49,15,14,-1,-6,-4,7
7369297726,37,39,-22,-38,-14,-4,-1,2
7369312707,-29,-28,6,30,6,4,2,-3
7369312707,-11,-35,-24,-27,3,-4,-5,-1
7369320239,13,-14,5,-17,-24,-12,-11,-5
7369320239,-2,-35,-6,15,22,2,1,-2
7369335838,8,66,7,5,5,6,9,5
7369335838,2,-10,-16,-4,-2,-2,-1,-3
7369336573,17,-20,23,23,-3,-4,-13,3
7369336573,-4,-54,-23,-20,-9,-7,-4,-8
7369351597,-26,-38,-11,-8,-2,-1,21,3
7369351597,3,34,6,-4,-7,-6,-13,-4
7369357695,-21,-30,-6,8,5,1,-11,2
7369357695,-2,-14,21,3,-9,-6,-4,-3
7369372744,33,14,-4,3,17,10,11,6
7369372744,-8,0,5,10,-13,-5,-2,-3
7369380188,5,41,-2,-9,6,-8,1,0
7369380188,-6,-15,-5,-11,-16,-7,-4,1
7369395821,4,22,-5,20,12,10,-6,-10
7369395821,-22,-3,13,7,10,3,9,0
7369396500,6,-19,-2,28,13,9,-5,-8
7369396500,-16,5,9,-10,7,-19,-1,-4
7369411537,7,0,-4,-14,-14,-6,-13,7
7369411537,1,-10,-1,-11,-16,11,0,-3
7369417725,-12,-16,-17,-4,-2,8,8,1
7369417725,9,17,0,0,-23,-12,4,-1
7369432650,-2,-13,-1,-15,17,-12,-3,0
7369432650,-12,-27,-2,20,-5,1,-12,-10
7369440216,13,7,-4,-22,4,-8,10,6
7369440216,-8,10,10,27,-10,6,-6,-4
7369455811,2,-4,-14,-3,50,13,2,-1
7369455811,10,19,12,4,-34,-18,-1,2
7369456523,-8,2,-16,-30,6,10,-3,0
7369456523,11,20,8,4,-22,-14,-2,-6
7369478381,-11,-18,1,31,6,-7,-14,-7
7369478381,0,-2,-14,-22,32,-15,0,-4
7369479049,1,0,11,12,-15,-3,-7,-1
7369479049,-8,-26,-2,-28,12,6,2,1
7369492660,6,-1,12,-1,-12,4,4,-3
7369492660,-10,2,9,19,33,9,10,4
7369508354,-6,-12,-19,-22,-5,-8,-5,-1
7369508354,12,25,4,21,-1,-5,-6,-2
7369515807,0,16,-12,-13,-27,-16,-3,-2
7369515807,-21,-35,3,14,-16,4,17,-7
7369516503,-4,10,-12,-46,-4,-9,-7,-4
7369516503,0,12,7,13,16,19,9,6
7369531519,-3,-18,-2,0,-13,-6,-3,-1
7369531519,15,14,3,-7,-9,-1,-13,0
7369537752,0,10,12,27,3,-10,3,-2
7369537752,-12,-9,-16,-23,-7,-4,-2,-8
7369552685,5,2,8,-4,-5,1,-1,2
7369552685,-3,8,-11,-13,-3,-3,-7,-3
7369560232,-8,-11,10,15,-2,0,3,-3
7369560232,-1,7,-1,-3,12,19,-4,1
7369575799,2,1,-3,-9,-15,-2,10,1
7369575799,3,8,-1,0,-2,16,1,2
7369576524,-9,6,-6,-11,-5,-14,-2,-4
7369576524,3,8,-4,13,11,-2,0,2
7369591539,-2,5,4,-4,-10,-11,-6,-1
7369591539,11,-5,-4,-4,1,15,1,-3
7369597664,12,-12,-6,-3,-2,-5,10,5
7369597664,-4,-26,-1,-2,-1,5,7,-1
7369612551,-15,-25,-3,2,0,-1,-6,-3
7369612551,-13,-22,0,-13,0,-9,13,-1
7369619969,-15,-23,-2,2,-3,5,-8,-4
7369619969,-4,13,0,3,-2,-11,-6,-8
7369635741,25,10,2,-10,-9,13,-18,0
7369635741,1,0,-5,3,4,-10,-2,1
7369636623,22,-8,-3,6,8,15,-12,3
7369636623,-27,-23,-6,0,-1,4,3,-6
7369651583,0,2,-4,-6,-3,-13,-3,0
7369651583,21,7,5,-1,-8,-2,-5,5
7369657686,5,5,-7,-5,-11,-6,-3,1
7369657686,-1,12,1,2,0,-13,-10,-5
7369672608,-22,4,-17,-23,-6,6,6,0
7369672608,-1,-17,-2,7,-6,-8,-7,0
7369680193,4,12,7,12,12,2,17,2
7369680193,0,-11,4,5,-6,-2,-11,-2
7369695824,11,80,3,-1,-3,-1,5,0
7369695824,-20,-52,-24,-21,-7,0,-1,-5
7369696548,-4,48,18,16,5,-2,-4,0
7369696548,16,13,-21,-16,11,10,5,8
7369711574,7,20,16,8,1,0,1,1
7369711574,21,-7,12,-7,-7,-11,-12,-2
7369717706,-26,37,-24,-22,-12,3,-1,-8
7369717706,-26,-27,-9,-10,0,2,2,-2
7369732556,5,22,18,8,0,-2,2,1
7369732556,7,1,-9,-5,2,2,3,0
7369740168,-11,-43,4,-4,-6,-3,-14,-3
7369740168,16,37,5,-1,-6,-5,-2,0
7369755105,4,-17,-2,0,-2,4,7,1
7369755105,-12,-18,-10,4,1,0,-8,-3
7369762687,6,2,11,15,5,8,17,-5
7369762687,-7,-16,-22,-21,2,-9,-8,4
7369771522,-8,-33,-13,-18,-13,0,-9,-6
7369771522,20,67,17,23,6,-2,3,10
7369785842,1,-23,-34,-26,2,-5,-2,-8
7369785842,-22,-39,22,34,-4,-8,-7,-10
7369792702,-8,-47,-8,-6,6,20,18,-5
7369792702,-8,29,4,3,3,-4,-15,4
7369800182,2,5,3,0,-6,1,3,3
7369800182,8,-4,-2,-1,-33,-12,-8,1
7369815216,-6,-17,-3,7,24,5,7,0
7369815216,-1,2,0,-16,-3,5,10,-4
7369822682,17,10,15,31,32,7,3,4
7369822682,-3,9,-9,-23,-15,2,0,2
7369831525,2,1,7,12,2,-9,-4,-1
7369831525,-13,-7,-2,-14,-28,-13,-7,-12
7369837560,6,-1,-1,-10,7,3,-2,4
7369837560,7,3,11,17,31,1,7,1
7369852668,1,-6,-20,-15,-16,-24,-11,1
7369852668,-16,-17,3,-20,-1,16,-1,-8
7369860071,-17,-24,2,36,6,4,-1,-6
7369860071,6,8,16,8,-8,-1,0,2
7369875163,4,-9,-30,11,14,3,4,6
7369875163,-4,12,1,-12,-6,-4,-1,0
7369882654,-7,-8,5,-15,-16,-8,-10,-10
7369882654,7,-3,-10,-6,-3,1,3,4
7369898336,-2,-4,7,13,4,0,1,-1
7369898336,7,-6,8,24,5,-2,0,5
7369899047,-6,-20,-21,-8,-15,-1,-2,-1
7369899047,12,15,-2,3,21,11,4,3
7369912628,-1,8,13,-15,-11,-5,-3,-3
7369912628,2,-3,-10,-1,3,-12,-3,-1
7369920183,-16,-14,16,24,-14,10,-2,-2
7369920183,3,-3,-23,-39,16,-1,1,-4
7369935118,5,12,2,-11,-20,-8,-6,-1
7369935118,-3,-6,4,7,16,7,6,3
7369942634,2,9,-3,12,0,-5,-1,1
7369942634,3,4,9,0,-25,-16,-7,-3
7369958352,-11,-7,9,27,22,15,3,-3
7369958352,-1,13,-6,-8,-4,3,-2,-2
7369959019,2,12,7,-12,-1,-17,-18,-4
7369959019,-12,-8,-7,-1,-13,-6,2,-6
7369972658,-5,8,9,-11,-7,-16,-7,-2
7369972658,-12,-3,-12,-8,1,26,4,-4
7369980120,18,24,2,-12,-6,-27,7,4
7369980120,1,0,5,1,0,27,-5,-5
7369995141,-11,-19,6,7,-3,-18,-12,-5
7369995141,-15,-34,-2,-5,-4,-6,-29,13
7370002544,-4,-30,-4,-13,-1,4,20,-19
7370002544,3,-6,2,9,1,-12,-7,5
7370018176,9,-3,-6,-10,-7,-4,25,-10
7370018176,-1,9,3,12,11,5,19,-8
7370018983,13,-18,-8,-10,-1,11,3,30
7370018983,-31,-16,7,10,10,6,-4,-28
7370032533,9,-16,0,-2,-6,8,1,-1
7370032533,0,7,-1,0,0,-9,-3,-7
7370040045,-2,0,-7,-7,-2,-3,-6,1
7370040045,8,-4,-1,-1,3,-9,2,8
7370063214,-20,6,-3,-2,0,15,17,2
7370063214,4,-5,-2,0,-6,-23,-1,-2
7370063991,4,-17,2,0,5,27,4,0
7370063991,12,45,4,3,-4,-3,-26,3
7370078172,-11,-50,-10,5,2,-2,-14,-2
7370078172,27,37,-5,-11,-2,-4,-16,1
7370078992,-32,20,4,30,1,-6,26,-7
7370078992,-18,2,-10,-28,-9,-2,8,-6
7370092497,28,5,7,17,-4,5,-4,14
7370092497,8,-13,18,-1,5,-8,16,6
7370099985,9,53,-4,-18,-3,7,-16,1
7370099985,12,-20,-38,-2,1,6,4,2
7370114999,-7,6,39,9,20,5,-11,-1
7370114999,-4,21,-75,-73,-22,-10,-1,-7
7370122481,-31,29,-3,48,-1,-7,-26,-11
7370122481,-13,-56,-53,-27,13,1,0,4
7370138142,43,24,21,-15,-29,-13,7,10
7370138142,-48,-102,24,-21,-2,-5,-8,-14
7370138964,46,97,-1,-34,10,4,16,3
7370138964,-5,31,43,13,-1,5,34,20
7370152502,-8,3,-40,6,15,14,-12,-12
7370152502,1,12,3,27,-10,-18,-41,-9
7370160024,29,-6,60,30,-25,-17,-10,5
7370160024,0,-18,-11,-35,-4,-1,9,5
7370175060,19,38,4,8,8,11,15,8
7370175060,-23,21,0,7,38,0,13,5
7370182560,-8,-40,4,-18,-32,19,-21,-6
7370182560,21,45,10,30,20,-1,6,2
7370199581,-24,20,-10,-30,-9,3,3,6
7370199581,21,48,11,35,-6,-12,1,-7
7370200406,-24,-38,-22,-12,34,8,5,1
7370200406,2,-23,-9,-20,30,-33,-29,-7
7370212472,-8,-11,-2,11,-81,24,12,-6
7370212472,10,-30,4,-3,21,3,23,5
7370219977,-1,-36,-8,15,54,-3,-1,4
7370219977,2,-9,18,12,-10,3,-5,-8
7370235019,-16,-36,-14,-21,16,-21,-14,-10
7370235019,-1,-3,7,24,-2,14,-1,-1
7370242527,-8,-17,-15,-28,-18,-8,1,-7
7370242527,10,18,3,9,-5,12,5,-1
7370258167,-17,-22,0,-14,-4,-22,-26,-9
7370258167,0,1,-24,0,-16,5,6,-2
7370258959,4,4,11,-10,6,-13,-3,0
7370258959,-10,-9,-10,1,8,5,-6,-5
7370272494,0,14,6,18,-12,-9,3,-1
7370272494,8,15,1,-14,16,10,5,8
7370280028,-4,-10,-28,-15,-35,-2,2,0
7370280028,2,6,7,-2,-21,6,10,1
7370295188,-11,-5,-20,21,41,12,1,-5
7370295188,3,17,-2,-9,0,-6,-1,0
7370310807,-7,-10,-8,13,-14,-5,-5,-3
7370310807,0,0,8,22,0,4,10,1
7370318373,6,-1,4,-1,16,-9,-4,2
7370318373,7,2,9,-4,-21,4,1,2
7370319031,8,9,11,9,-7,14,-3,-1
7370319031,-9,-28,-14,-24,9,1,1,-1
7370340838,-5,-8,-8,-9,8,-9,-4,-1
7370340838,-5,2,7,13,-1,8,9,1
7370341491,-14,-7,-1,-9,-7,-5,0,2
7370341491,32,21,15,24,-1,-5,4,5
7370355094,0,10,-5,-15,-5,2,-5,0
7370355094,-38,-24,-2,-2,-14,-40,-9,-5
7370363216,24,-1,1,1,14,43,-19,-7
7370363216,-20,-14,1,1,-5,14,-10,0
7370378345,8,-14,-3,-6,-4,5,28,1
7370378345,15,-6,12,13,0,3,-3,4
7370379004,-7,-3,0,-7,3,-25,-3,-3
7370379004,13,6,3,2,-12,-7,-10,-5
7370400833,-5,7,1,-3,-5,4,1,3
7370400833,0,7,0,3,2,2,-1,-1
7370401459,-1,6,-9,-13,-6,-14,13,4
7370401459,-20,-11,2,2,-7,6,-7,-6
7370415162,0,-12,-1,1,4,-16,-10,-1
7370415162,-12,5,-3,-1,-3,18,4,-3
7370423312,0,-11,-5,-4,3,-23,-32,-3
7370423312,1,26,13,9,-3,6,26,-1
7370439648,-1,-1,3,-1,-2,4,-2,4
7370439648,10,2,-2,0,-1,-2,-7,-2
7370440437,-16,-10,-10,-4,-1,-1,5,-7
7370440437,-11,9,4,14,-1,0,-4,-3
7370460864,14,12,-10,-21,-1,-5,-8,2
7370460864,11,31,-3,-9,-2,9,11,5
7370461502,-4,-52,0,17,11,-2,6,1
7370461502,-19,3,-4,-2,-11,-14,-11,-3
7370475144,0,43,9,-2,-3,3,2,-5
7370475144,-30,-23,-18,2,-4,-12,-15,-7
7370483307,11,50,19,3,7,3,10,6
7370483307,-1,-54,-10,7,5,0,-6,1
7370498312,12,4,5,7,-3,-4,-6,1
7370498312,-10,-37,27,35,-14,-4,-12,-4
7370499000,18,39,-27,-52,-2,-3,21,-3
7370499000,-15,-33,-36,-18,-1,4,-14,-3
7370520789,9,12,5,0,-2,-2,-2,0
7370520789,-3,5,9,2,-8,-1,0,3
7370521498,-7,12,4,7,9,4,7,-1
7370521498,17,-8,19,-7,2,2,2,8
7370535075,-5,7,-20,-3,1,-1,-8,-12
7370535075,-18,-22,10,12,1,0,-4,-1
7370543387,-9,15,0,4,-8,-6,-7,-5
7370543387,23,30,8,1,-11,-10,-3,3
7370558295,-20,-31,-11,-16,4,3,-6,-3
7370558295,9,36,-8,-5,5,3,11,2
7370558976,-6,-28,-10,-17,2,-3,-2,2
7370558976,6,11,-14,-5,-3,-4,-13,-8
7370572602,24,-1,17,29,5,-1,-5,2
7370572602,-7,22,10,-6,0,-4,9,0
7370588344,-11,-28,-1,-20,-13,-4,-1,3
7370588344,6,21,9,17,7,11,8,-5
7370595137,11,-15,0,15,-4,-7,10,4
7370595137,-4,-8,-12,-27,9,6,-4,4
7370603331,-4,-11,2,26,12,10,-10,-8
7370603331,1,-5,2,-8,-14,-6,-3,0
7370618282,-17,-2,1,-1,-15,1,3,-2
7370618282,10,-25,-9,0,12,-9,-2,-4
7370618973,20,7,4,-1,19,-1,4,14
7370618973,-10,-9,-4,-3,-19,-3,4,-3
7370640733,-9,1,-2,-3,0,-5,5,2
7370640733,8,11,-3,-5,2,8,-13,-8
7370641669,3,11,1,5,9,4,1,0
7370641669,1,11,-7,-11,10,6,2,-1
7370655146,-4,11,2,-34,-14,-11,7,5
7370655146,16,-2,-7,-22,4,10,10,3
7370663335,-15,-5,1,52,-38,-11,-11,-12
7370663335,-6,-7,5,-73,-1,-15,-2,-2
7370678252,-22,-1,8,35,-26,7,-4,-4
7370678252,1,-12,-16,19,15,-2,-2,-6
7370678974,-11,-20,-29,-24,5,-7,-8,-8
7370678974,-10,2,32,31,6,13,14,3
7370700827,-12,-18,-4,-8,-2,3,-7,-6
7370700827,14,11,-9,-18,-21,-11,-11,-5
7370701501,12,6,7,53,1,-12,2,7
7370701501,-8,12,-6,17,15,18,6,4
7370715108,-16,-8,-12,-18,9,-6,-6,-7
7370715108,-5,11,11,-2,1,13,-5,0
7370723261,-10,-16,-25,-29,-15,-8,3,-5
7370723261,23,12,-5,12,-5,-13,-16,2
7370737651,-11,-9,2,-13,-3,-4,10,-12
7370737651,6,0,2,4,-5,-1,18,7
7370745807,-11,-7,7,-10,-7,-3,-30,-5
7370745807,2,14,-8,-5,-1,-14,41,3
7370760798,15,7,3,6,16,8,-14,1
7370760798,9,-7,2,0,-5,-18,12,4
7370761498,-9,12,4,-19,0,-9,11,-25
7370761498,0,-3,0,12,6,6,2,20
7370775202,-9,-3,1,2,0,-18,-22,-4
7370775202,11,-11,2,3,3,39,-18,1
7370783363,12,-18,12,-6,-12,-25,24,1
7370783363,-13,-26,0,2,-1,-10,-59,-37
7370797625,11,-36,-6,9,21,17,90,39
7370797625,5,-11,-2,-2,-6,6,19,2
7370805797,44,44,10,-11,-13,9,-59,24
7370805797,-30,14,4,3,-7,-26,-1,-18
7370820690,-8,15,2,-4,-4,-2,-21,-12
7370820690,-22,-27,2,-3,-9,-1,-15,-1
7370821507,24,29,-26,-14,4,6,30,0
7370821507,-19,-94,3,27,0,-5,7,-1
7370835137,-6,38,-53,-43,8,8,-11,0
7370835137,4,17,16,42,-8,-12,3,1
7370843289,18,11,-7,-25,5,3,-12,0
7370843289,29,35,33,10,3,13,3,17
7370857632,-40,-12,-36,-21,-10,0,-19,-16
7370857632,5,1,-22,2,10,-4,-4,-1
7370865727,-23,-47,31,12,2,8,10,-4
7370865727,36,23,-12,-29,-13,-10,0,6
7370880780,-17,-3,34,41,6,1,1,-4
7370880780,-5,-14,-26,-25,-1,-9,0,-7
7370881488,-32,-6,2,9,-4,0,7,1
7370881488,40,-19,4,9,2,6,10,17
7370895135,-10,34,16,9,-4,-1,-20,-16
7370895135,7,69,1,-10,-9,-7,-5,-7
7370903276,-2,-62,-16,-9,6,5,12,14
7370903276,4,15,0,11,9,8,-12,-3
7370917621,7,-9,10,7,-12,-6,-11,-2
7370917621,-11,12,16,12,18,0,9,-1
7370925873,9,30,11,-2,-12,-9,28,-5
7370925873,-7,47,-26,-13,1,-1,15,5
7370940768,19,10,13,15,16,18,8,3
7370940768,-24,-42,-10,-28,-14,7,-7,-3
7370941476,-16,18,7,-4,-17,-9,-13,-5
7370941476,16,-5,-16,-6,-1,-1,2,2
7370955144,-35,-14,7,4,-13,-17,-8,-10
7370955144,11,-14,-7,-23,-22,-6,-14,-3
7370963329,-2,0,1,0,23,14,3,-4
7370963329,-22,-19,-5,-14,-24,9,-20,-7
7370977542,27,-10,10,0,19,4,9,10
7370977542,3,4,21,41,36,7,-4,6
7370985828,-6,-11,-4,-4,-20,-7,0,-4
7370985828,-28,-14,-6,-21,-30,-19,-8,-12
7371000641,19,-3,-29,-43,-4,2,5,2
7371000641,-5,-13,9,8,-8,19,1,6
7371001461,-8,0,1,2,-2,-1,-17,-4
7371001461,-11,6,4,16,28,6,7,-6
7371015091,20,4,-2,12,-9,-14,-9,1
7371015091,7,12,-4,-25,8,-12,8,-2
7371023336,-11,-4,-10,27,-28,14,-11,0
7371023336,-3,-12,-10,-29,15,2,-4,1
7371037627,-14,-15,-14,-8,0,0,8,0
7371037627,5,-7,-8,-6,-18,-3,-4,-7
7371045839,-5,23,10,14,14,-9,3,1
7371045839,-22,-19,6,-5,-17,-7,-5,-11
7371060752,23,0,1,28,13,7,0,6
7371060752,2,5,-9,-25,-7,-7,0,-1
7371061414,-6,10,-5,-11,5,4,1,-1
7371061414,-21,-21,-2,12,0,2,0,-4
7371075106,0,2,5,-1,2,21,-6,1
7371075106,0,-3,-1,15,2,-5,0,-1
7371083331,-3,-24,-4,1,8,2,3,0
7371083331,12,12,-1,-10,1,-8,-4,2
7371097610,2,16,10,4,-2,-7,-2,2
7371097610,2,-22,-14,-2,-3,-3,6,-3
7371105798,-21,12,3,-5,7,-2,-18,-2
7371105798,6,12,-4,9,0,-3,8,0
7371120762,-2,-6,-8,-11,-11,-9,-3,-4
7371120762,8,12,5,10,7,-14,20,6
7371121441,11,6,-2,-10,-2,28,9,-4
7371121441,-11,16,1,9,2,7,-3,-1
7371135113,8,3,0,-6,-3,0,-3,-3
7371135113,-25,-2,10,0,4,-10,-15,-3
7371143235,12,-14,-11,-3,3,-10,-4,6
7371143235,2,5,2,6,1,-1,7,-1
7371157628,13,-7,3,-1,2,6,0,-1
7371157628,-10,4,0,1,-4,-5,-4,-2
7371173284,-7,-19,-4,-4,0,-8,-8,-5
7371173284,7,3,0,-1,-3,2,7,-4
7371180784,-6,-15,1,-2,-4,-15,-7,3
7371180784,7,-9,0,3,3,11,-15,1
7371181492,-16,1,4,1,1,-1,-4,-2
7371181492,12,-7,2,2,0,-11,-1,2
7371195065,-14,-21,2,1,-2,23,-8,-5
7371195065,3,3,2,-4,-3,-6,4,1
7371203250,9,9,-1,8,2,5,6,2
7371203250,-6,-9,-4,-3,-4,-13,-8,0
7371217576,-5,5,0,-5,-6,-6,-1,-4
7371217576,-4,6,-3,-16,-7,0,-6,-5
7371225777,15,2,3,20,11,3,4,3
7371225777,19,8,-7,-1,1,6,0,3
7371240823,-32,10,14,6,0,-9,2,-4
7371240823,-30,-21,-22,-12,2,3,1,-4
7371241438,13,6,1,-12,-8,-8,7,3
7371241438,-13,12,-3,-10,-7,-3,-10,-9
7371255138,8,-5,10,6,1,-1,3,3
7371255138,14,17,19,25,-7,-3,-10,-2
7371263312,-3,11,2,-26,8,-3,1,1
7371263312,-2,-1,-15,-11,-3,5,3,3
7371277650,23,-1,-13,-1,3,0,6,4
7371277650,-40,-10,8,-3,-6,-9,-1,-7
7371285824,21,7,16,12,-18,-10,-4,-1
7371285824,9,19,-9,2,20,12,6,5
7371300791,1,-6,-8,-6,-6,-8,22,2
7371300791,20,-4,-3,-8,-2,-6,-24,-4
7371301452,-30,3,5,13,4,5,2,-1
7371301452,-17,-28,19,10,-4,-1,0,-5
7371315147,2,-19,-36,-35,-1,-3,-9,0
7371315147,8,20,2,7,3,4,7,3
7371323260,6,-2,-10,-12,0,-4,1,-4
7371323260,-5,15,9,15,-5,-7,-4,-1
7371337618,15,3,4,9,1,-5,-5,2
7371337618,-14,1,2,-1,-1,0,8,3
7371346453,10,11,-8,-6,5,5,-1,-1
7371346453,0,-12,0,-1,-5,-4,3,1
7371360045,7,10,6,-3,-15,-15,-14,-4
7371360045,3,8,-7,-4,-1,8,2,-4
7371368997,-1,-13,1,16,17,-2,0,-2
7371368997,-6,-19,-5,-1,1,14,-7,-4
7371375147,-13,-4,-2,-5,-6,-4,-1,-2
7371375147,11,-12,-1,0,0,-18,-14,4
7371383954,-1,-20,-5,1,-3,17,8,-1
7371383954,9,7,6,16,2,-3,7,4
7371397610,-12,-12,4,1,-1,6,-7,-5
7371397610,-7,-4,3,9,14,8,11,-8
7371406502,0,-4,-12,-28,-7,-10,-3,5
7371406502,-20,-8,-2,-16,0,0,-10,-7
7371420087,5,2,-1,32,-15,-11,-3,3
7371420087,3,-10,-19,-39,-16,-6,3,-3
7371428973,-4,-11,-26,-50,-13,10,2,-3
7371428973,-4,3,-7,29,18,-7,0,-3
7371435112,-8,3,4,19,2,-3,3,0
7371435112,7,-1,11,16,-6,-1,0,-2
7371444002,-10,-7,-7,-11,-2,-5,-9,-3
7371444002,-3,-15,5,-32,-21,1,3,1
7371457586,6,4,5,-4,9,1,-4,-6
7371457586,16,20,1,25,-1,0,7,6
7371466494,-12,9,-6,2,2,-4,-1,3
7371466494,-5,-6,1,0,-4,6,-8,-2
7371479995,-1,4,-10,-7,-6,-16,2,-3
7371479995,11,12,-7,-19,5,4,2,4
7371488969,-1,25,21,20,1,-2,-4,-6
7371488969,23,25,-8,3,0,6,9,1
7371495113,0,8,3,-5,-2,-5,-4,-1
7371495113,-1,-9,-10,-8,-2,-1,4,-1
7371503969,6,-2,19,23,2,-12,-2,-3
7371503969,-12,1,5,10,2,-15,-2,0
7371517663,-11,-2,7,-6,9,14,5,-2
7371517663,3,12,8,7,6,5,6,-1
7371526486,-6,1,-2,4,-5,-5,-40,2
7371526486,-5,-3,-4,-17,-10,-11,0,-5
7371540123,14,9,-11,-14,-3,-1,2,5
7371540123,-16,-6,3,0,0,0,5,-8
7371548976,5,-12,-4,12,6,11,-18,-1
7371548976,1,-8,-2,-3,1,0,2,6
7371555081,-6,-9,1,-2,6,3,-4,-2
7371555081,0,-27,9,9,0,-3,-1,0
7371564010,-1,-23,-2,-7,-8,-21,19,-6
7371564010,8,-8,2,-5,-1,17,1,2
7371577503,3,6,3,0,-1,-8,-6,-5
7371577503,-6,-6,-1,-1,-2,4,1,0
7371586476,-13,-7,-7,-3,-4,-5,5,-5
7371586476,-40,-31,1,1,-1,1,-1,-4
7371600079,15,-38,-7,-1,0,2,-1,4
7371600079,-6,-13,-5,-2,-1,2,-5,-2
7371608977,5,-3,3,0,-4,-6,-6,-1
7371608977,23,14,-4,-5,-5,-8,-11,-5
7371615073,-13,16,4,-1,3,-4,14,4
7371615073,4,5,-4,-1,-2,1,-1,-1
7371624019,5,3,0,-1,0,8,14,3
7371624019,-4,1,-2,0,1,-9,2,-2
7371637590,17,31,14,8,1,9,-3,5
7371637590,1,10,10,8,-3,-10,-4,-1
7371646494,-9,-5,-14,1,8,9,18,2
7371646494,3,19,36,1,-11,0,1,0
7371660012,-13,26,-47,-27,8,6,10,-5
7371660012,-31,-12,-57,-58,-13,-2,-21,-2
7371668982,0,6,52,84,-30,-13,-12,-3
7371668982,-9,-24,-20,-104,41,7,-6,-3
7371675048,-10,4,-18,6,-9,3,-4,-5
7371675048,4,-18,-27,-25,10,-2,0,-6
7371683987,12,27,-23,6,-19,-10,3,4
7371683987,5,-3,87,97,-15,1,-4,-5
