timestamp,emg1,emg2,emg3,emg4,emg5,emg6,emg7,emg8
6733778241,-3,-4,0,-1,-7,-10,-7,-3
6733778241,1,-5,-4,-7,-8,-4,-1,-2
6733779012,0,7,2,4,-1,-6,1,-3
6733779012,4,-1,0,1,7,14,1,1
6733783255,-6,-5,-7,-4,3,-2,0,-3
6733783255,-4,4,1,-3,-4,-7,-1,-1
6733784852,0,-2,0,-1,-1,-1,-1,0
6733784852,-4,-10,-4,-6,-8,-8,-4,-2
6733788947,9,4,5,3,0,1,-1,1
6733788947,-10,-2,-2,1,3,2,0,-2
6733797668,10,-1,0,0,1,-1,0,-2
6733797668,-2,4,6,2,1,-1,2,-2
6733812680,-3,-2,-2,-8,-7,3,-7,-3
6733812680,0,-1,0,1,2,-3,-1,3
6733819070,-1,-3,-6,-2,-6,-3,-4,-3
6733819070,-1,1,-1,1,2,-1,-2,-3
6733829163,4,7,3,1,3,2,3,-2
6733829163,1,5,1,-2,-3,-2,-2,-3
6733843340,-14,-12,-7,-4,-9,-6,-10,-2
6733843340,0,1,0,-3,3,-1,10,-2
6733849121,-2,-4,-2,10,7,6,2,-2
6733849121,5,7,5,10,6,7,2,0
6733897160,-4,-7,-5,5,2,2,3,2
6733897160,-14,-17,-7,-7,-3,-1,-6,-7
6733898069,13,9,4,-10,-5,-1,7,0
6733898069,-2,5,2,19,0,-4,0,1
6733898809,-5,-6,-3,-5,-3,-2,0,-1
6733898809,5,1,-3,0,5,8,4,1
6733901940,-8,-4,-4,-3,-3,-10,-4,-3
6733901940,-7,-10,7,-10,-4,-1,1,-1
6733908827,5,9,4,9,1,4,1,0
6733908827,-3,4,-1,-1,-2,-3,2,-3
6733916322,3,-9,-7,-2,1,-3,-12,-4
6733916322,6,5,3,-2,1,2,4,8
6733925176,-5,3,-1,-2,2,6,2,-3
6733925176,-2,-1,3,-3,-1,4,-13,-2
6733939507,-3,-10,-6,2,1,2,14,0
6733939507,3,-1,-3,-4,-2,-9,20,1
6733946306,5,-2,-2,-6,-5,-3,-7,-17
6733946306,2,4,4,5,3,14,19,9
6733953842,-11,-1,-4,-2,-5,-13,-20,14
6733953842,3,-5,-8,-3,0,14,-23,16
6733968811,10,-3,-1,-2,-2,-17,13,-1
6733968811,-7,-2,1,0,-1,-5,-10,-20
6733976332,-16,-8,-3,-1,-1,1,0,-11
6733976332,-9,-10,-1,-2,-1,-8,-6,-9
6733985223,26,7,1,-6,-3,4,-6,16
6733985223,-7,11,-7,5,7,-3,-3,6
6733999516,-6,-11,22,10,1,-1,3,-1
6733999516,24,102,37,2,-1,7,9,1
6734006318,-27,-105,-50,-26,-2,-4,-12,-9
6734006318,25,49,28,33,5,-4,1,12
6734013788,-31,-69,-42,-38,-14,5,4,-17
6734013788,-26,-27,-20,-14,9,5,0,-6
6734028812,50,114,72,-40,-8,1,-6,4
6734028812,-56,-106,-74,14,10,-5,-12,-10
6734036306,-16,23,29,-40,-28,-13,-17,-17
6734036306,23,69,-29,-25,-35,-14,-5,-3
6734045197,-20,9,-43,-25,27,12,5,7
6734045197,-5,72,-47,2,-10,-8,-6,-12
6734059512,31,85,38,55,14,9,22,14
6734059512,-38,-80,-6,-17,-17,-6,-25,-14
6734066312,-16,-13,6,26,-9,-12,3,-3
6734066312,17,15,-5,-16,-6,-4,-12,-1
6734073705,-10,-71,-4,33,0,0,6,8
6734073705,-2,-2,-22,6,7,13,34,0
6734088840,-1,3,-4,5,2,-10,11,-8
6734088840,5,-9,53,3,5,15,-16,13
6734096391,28,34,-14,-10,-5,-20,23,-3
6734096391,5,-2,10,-1,3,18,17,15
6734105211,-30,-14,11,9,1,-1,2,-19
6734105211,5,-6,17,2,-3,-12,24,-1
6734119545,6,32,-5,-21,-5,3,-8,2
6734119545,-4,-25,4,13,-2,5,11,0
6734126325,-5,-19,-13,2,11,8,-22,1
6734126325,8,2,2,-2,5,-3,6,-3
6734133796,4,-15,-13,-18,2,10,-14,3
6734133796,-3,-31,20,19,-2,-9,4,-9
6734148839,5,-6,4,-14,2,1,-7,6
6734148839,8,-22,18,46,17,9,4,2
6734156361,-7,-19,-16,-6,10,3,7,1
6734156361,7,-9,-2,9,-2,-14,-32,-11
6734165184,7,19,-7,9,4,0,8,2
6734165184,-12,-10,2,-12,-7,-8,6,0
6734179400,3,0,3,41,3,-3,-13,-6
6734179400,4,1,-21,-53,9,-6,-2,-1
6734186333,-1,-5,8,20,-3,4,-2,6
6734186333,-1,2,5,-28,-24,-9,3,-5
6734193833,-3,12,5,6,14,6,-2,-1
6734193833,-7,-4,12,2,-5,-1,-10,-4
6734208887,2,22,9,22,-5,2,3,5
6734208887,-1,8,-11,-40,-4,1,-9,-1
6734216359,-6,29,5,-9,-7,-10,-9,-5
6734216359,5,31,-10,13,6,3,5,4
6734225191,-4,1,4,9,-2,-1,1,-1
6734225191,-1,4,4,-24,-20,-12,-9,-7
6734239527,4,-23,-2,5,-2,-4,-9,6
6734239527,-3,-28,6,-4,7,-2,3,-4
6734246297,-16,-26,-8,-4,-7,-1,-5,-6
6734246297,10,1,2,6,-7,-14,-17,7
6734253814,-1,-15,-2,-9,4,11,-16,-2
6734253814,-1,-16,3,11,3,8,3,0
6734268740,-3,-4,3,-7,-10,-12,0,0
6734268740,6,-9,-8,5,10,-2,-3,-1
6734276285,-10,-13,1,-2,-4,0,-9,-6
6734276285,0,2,-4,9,4,-2,7,4
6734285182,2,-15,-8,-14,-16,-7,-24,-4
6734285182,-4,-6,0,-15,-9,-6,8,-3
6734299529,1,8,-1,-5,8,6,3,-1
6734299529,6,2,-2,12,4,0,-8,2
6734306267,-11,-3,-8,-7,-1,-1,3,-2
6734306267,12,21,2,3,-3,-1,7,3
6734313694,-6,7,6,-2,-7,-5,4,-10
6734313694,2,2,-6,-12,-2,-6,-22,6
6734328844,14,18,16,15,7,8,14,8
6734328844,-4,1,6,2,0,5,-4,-3
6734336297,6,1,-1,3,2,2,10,2
6734336297,-10,-11,-3,-9,-8,-6,-10,-10
6734345198,4,-4,-19,-8,0,-1,-6,1
6734345198,-3,-16,-2,-2,4,4,-2,1
6734359390,-8,5,2,-1,0,-3,3,-1
6734359390,5,-6,-9,-3,-1,-3,0,-3
6734366306,6,0,7,8,0,4,1,2
6734366306,-12,-11,-1,-7,-4,-6,5,-2
6734373805,2,-7,-9,-2,-1,9,10,-2
6734373805,3,0,10,7,2,-1,19,12
6734388864,-2,-8,-6,-6,-5,-4,1,-4
6734388864,-2,-5,0,3,1,-5,2,-5
6734396321,-4,2,3,3,3,6,-26,1
6734396321,5,10,9,0,-3,-2,28,-1
6734405218,8,4,0,4,4,0,1,-4
6734405218,-10,-2,-2,-5,-3,3,-26,7
6734419484,17,2,-2,-2,2,-3,8,5
6734419484,-51,-5,3,-1,-5,-6,-15,-13
6734426316,-11,-6,-20,2,5,-6,-8,-6
6734426316,9,40,-3,2,4,20,9,2
6734433869,5,-17,7,-3,-7,-18,-2,3
6734433869,22,-23,49,4,6,10,-9,2
6734448835,26,108,-57,-9,-7,-5,21,6
6734448835,-40,-111,-66,8,4,2,-9,-9
6734456312,51,101,14,-26,-4,3,4,13
6734456312,-52,-74,-8,15,3,-17,-2,-5
6734465163,18,1,-7,-28,-15,-1,-2,-6
6734465163,33,107,87,42,0,0,9,10
6734479537,-36,-128,-49,-21,3,-3,6,-6
6734479537,-10,101,-50,-37,-3,-17,-38,-19
6734486343,-31,-26,45,31,9,12,0,-6
6734486343,12,-3,9,-14,12,10,5,5
6734502030,4,1,4,30,2,-3,10,1
6734502030,51,33,22,80,-13,-2,3,17
6734508834,37,70,-18,2,15,4,-8,5
6734508834,-20,-37,17,-23,-8,-12,8,-10
6734516310,-59,50,113,-7,-17,-13,-4,-9
6734516310,-25,-66,-58,-25,20,49,1,-14
6734525151,19,32,41,22,-2,-6,-9,18
6734525151,23,3,53,71,-27,-10,19,3
6734539424,-15,3,-34,-40,33,2,-26,-8
6734539424,5,19,13,-8,-21,-36,2,6
6734546361,-9,-48,31,-6,-21,16,0,-10
6734546361,2,10,16,-5,16,11,-4,-4
6734561982,-7,-12,-31,-35,-20,-6,-26,1
6734561982,6,13,28,-17,-11,-3,2,-6
6734568804,-4,-23,-22,53,11,-12,0,4
6734568804,-21,-26,-30,-38,18,0,0,-8
6734576305,17,-5,-18,-8,-5,17,1,-2
6734576305,17,-42,-19,-13,-3,-7,13,10
6734585202,-11,-42,24,-9,-20,-11,-30,-5
6734585202,-8,-31,-35,-4,12,0,17,-3
6734599508,-3,-16,11,31,-18,5,12,0
6734599508,-4,12,-7,-9,23,25,32,-9
6734606312,3,-28,-3,-5,-17,-24,13,10
6734606312,4,20,-12,-10,-2,4,-18,-11
6734621946,-4,-19,-20,-1,4,-12,0,-2
6734621946,1,7,9,17,-3,2,1,2
6734628787,-16,-15,-11,-7,5,9,-1,-2
6734628787,21,12,2,7,-1,-22,-3,7
6734636254,14,8,-24,12,2,-3,3,-2
6734636254,-12,11,-3,-13,-7,-6,-20,-3
6734645192,1,16,25,-22,0,7,14,-1
6734645192,0,15,-16,-31,-1,7,-3,7
6734659449,8,7,9,49,8,3,7,1
6734659449,6,3,11,-6,-12,-8,-9,1
6734666291,-12,-10,-18,-43,-13,-2,-3,-4
6734666291,-1,9,7,18,8,-2,7,1
6734681941,6,9,-1,-2,1,7,2,3
6734681941,3,-10,3,20,20,5,-4,-1
6734688788,-6,-9,-11,-1,-4,-11,-3,-2
6734688788,-16,-12,-2,-4,-22,-6,-14,-8
6734696278,-7,-31,-19,-35,13,-1,8,-1
6734696278,2,4,-7,6,-5,-4,-10,-2
6734705184,-11,-8,-1,15,11,1,0,-6
6734705184,2,13,-10,-13,-10,3,1,0
6734719506,5,7,2,13,-8,-14,-8,-2
6734719506,7,4,-1,-22,3,5,4,6
6734726274,-10,-7,-2,-3,4,1,10,-1
6734726274,-1,-9,-10,2,5,7,-2,-1
6734741965,1,17,15,13,-10,-10,-9,-1
6734741965,-2,3,9,-15,-9,-7,-4,-2
6734748793,-9,-10,12,4,5,7,-1,-2
6734748793,1,-4,-2,-3,1,1,-1,0
6734756283,-3,3,6,3,-2,6,4,4
6734756283,-6,-16,-5,-3,-1,-10,-8,-3
6734765190,-2,-21,-8,-3,1,0,-4,-5
6734765190,-6,-6,0,-7,-16,-14,-5,-5
6734779505,0,-22,-2,-1,6,19,0,1
6734779505,4,-10,-4,7,3,0,-3,0
6734786287,8,-7,0,-6,-6,-11,1,-3
6734786287,0,-1,-10,-10,-3,5,-24,8
6734801863,2,13,4,3,-3,-9,1,0
6734801863,5,-21,-6,-1,2,10,3,-1
6734808761,-14,-5,-1,4,1,3,1,-3
6734808761,-5,-9,4,-6,-6,-7,-3,-9
6734816306,-4,-4,3,0,-3,-4,0,-4
6734816306,0,11,3,0,-7,-3,-7,3
6734831171,-1,5,-2,-13,1,-1,-6,-2
6734831171,7,0,-9,5,1,1,10,2
6734839362,-13,6,-14,-7,-1,-3,-3,-4
6734839362,-10,12,6,12,-2,-1,1,-8
6734846243,4,9,-9,-16,3,-1,-2,3
6734846243,4,3,-3,-4,1,-8,2,1
6734861943,4,9,4,3,-1,13,1,-1
6734861943,10,-2,-5,-1,-4,-1,-7,-1
6734868769,-14,3,8,5,-5,1,16,-5
6734868769,1,5,15,2,0,0,-2,2
6734884477,-7,1,0,3,1,-15,6,0
6734884477,27,21,-31,-25,-8,8,-27,0
6734891174,-20,-57,4,1,0,-2,-6,-2
6734891174,-12,79,21,12,-1,-7,1,1
6734898732,10,-29,-19,2,5,10,15,-5
6734898732,-2,17,11,-6,-11,-6,5,11
6734907666,-9,-20,7,-3,4,-4,-20,-14
6734907666,-19,-57,-16,-4,5,15,20,-1
6734921844,13,98,59,45,-1,-4,-12,9
6734921844,5,7,-54,-36,11,-8,3,-7
6734928718,46,-67,63,19,-18,-8,-21,10
6734928718,-87,-98,-59,7,-2,-11,5,-14
6734944454,-2,24,41,1,3,10,7,3
6734944454,11,5,53,7,5,3,4,-1
6734951307,59,87,31,63,-29,-11,-13,8
6734951307,7,-28,-90,20,37,27,38,1
6734967613,16,-62,16,-23,-11,1,-3,10
6734967613,-66,-66,13,0,10,-13,-16,-9
6734969117,0,75,-35,-21,-18,-5,-1,-14
6734969117,39,78,1,-15,-14,-8,-22,3
6734982066,-14,-40,21,-18,9,-1,15,-2
6734982066,-14,-36,-24,21,7,3,2,-6
6734988822,4,13,-3,30,15,11,26,13
6734988822,0,-19,-4,-25,2,-3,-8,-1
6735004440,18,-11,-11,-52,-11,-10,6,0
6735004440,-7,8,3,-19,2,0,-19,-6
6735011298,-35,-12,-11,11,10,17,1,-2
6735011298,19,29,23,-28,-12,-20,-11,0
6735027687,-15,-5,-28,29,-12,6,-5,-13
6735027687,19,32,26,18,0,-5,14,6
6735029138,-17,6,-32,-27,14,12,-1,5
6735029138,14,-6,38,17,9,9,9,5
6735041165,1,-2,-17,11,4,5,22,3
6735041165,9,-20,-19,-16,-19,-11,-30,-12
6735050159,-3,-23,-4,0,0,-14,-4,0
6735050159,-19,-26,17,-8,-4,-2,6,-7
6735064465,-18,-27,-18,-10,-2,1,-13,-12
6735064465,11,2,2,21,4,-3,7,12
6735071240,-3,-19,-7,-30,-5,-11,8,-4
6735071240,14,11,36,20,-15,-1,-13,1
6735089011,-2,6,-22,-5,-10,-3,-2,-5
6735089011,1,3,11,20,2,15,27,-1
6735092032,-4,10,-9,-20,18,-1,-7,-4
6735092032,3,8,3,33,5,0,-7,1
6735103113,-4,26,-1,-48,1,-8,-17,-1
6735103113,-7,24,-4,-23,-26,-8,-3,-4
6735110307,0,27,18,15,3,-1,1,4
6735110307,0,-4,12,6,7,4,-7,-2
6735124385,0,-12,5,26,12,6,12,1
6735124385,3,8,-14,10,-2,0,-2,3
6735131150,-9,-18,-10,-12,-10,-8,-4,-5
6735131150,15,-2,15,36,-13,-5,-5,-4
6735147563,-4,-1,-25,-27,16,0,-6,1
6735147563,0,-8,-4,-5,4,2,12,5
6735149213,-13,-8,3,16,-7,1,3,-3
6735149213,-1,1,4,-47,6,3,-3,-3
6735161313,-3,4,4,38,3,-6,-9,-2
6735161313,-4,-6,3,-3,10,-6,9,-1
6735170142,-10,-5,-11,-16,-6,7,11,-6
6735170142,19,17,17,-4,-9,-3,19,11
6735184439,2,2,0,6,-8,-7,-10,-2
6735184439,-4,-12,0,1,2,-6,-1,-1
6735191158,-2,-12,-15,-22,-11,-2,-1,-4
6735191158,6,7,-13,8,10,1,0,2
6735207461,-6,-7,-4,-1,-4,3,0,-1
6735207461,-6,4,7,7,0,4,2,-2
6735209111,-5,-15,-13,-12,3,-3,-6,-3
6735209111,-11,-3,-8,-14,-7,2,-3,-4
6735221321,8,-5,-8,-2,-5,-7,-4,-1
6735221321,4,10,7,2,0,7,1,1
6735230223,9,13,2,1,13,5,-1,4
6735230223,-6,0,5,-12,-6,-7,-4,-3
6735244450,-6,-3,0,4,-7,-3,-3,-8
6735244450,-3,-13,-9,-8,-3,-5,-6,-3
6735251282,-7,-13,-1,2,-2,-4,-3,-2
6735251282,-5,-5,-19,-14,-4,2,-3,-2
6735267578,11,1,3,-2,-1,-2,-7,1
6735267578,-7,-5,-4,0,8,8,9,-2
6735269215,-2,-20,2,-3,1,-6,-1,5
6735269215,-4,-20,-4,-7,-4,2,-1,-8
6735281299,-1,5,4,2,3,3,29,9
6735281299,-2,-8,-3,-3,-6,-17,-22,-3
6735290160,10,7,2,3,8,18,5,2
6735290160,-2,-8,7,0,-8,-6,-1,-2
6735305133,-11,-10,-9,-6,-3,-2,-7,-3
6735305133,6,13,15,7,-2,-1,-1,0
6735311242,0,8,-2,1,1,-6,0,3
6735311242,3,-1,-10,-7,-5,-2,-15,1
6735326939,3,9,-4,0,-3,-2,-1,2
6735326939,0,13,0,-3,-3,3,7,-1
6735327665,-4,12,-1,1,-2,-5,-5,-9
6735327665,-7,0,-3,-6,-1,3,14,2
6735349270,16,10,-2,1,-2,-3,-1,1
6735349270,-1,16,-2,-6,-2,3,6,0
6735350265,11,6,-10,-9,2,1,4,2
6735350265,-6,9,14,17,-4,-4,-11,-1
6735365263,-7,-36,13,-5,6,2,-14,-5
6735365263,21,74,9,-14,-11,-15,-16,14
6735371228,-14,-51,-36,3,1,11,-3,-5
6735371228,-42,-9,1,-5,-2,-18,-11,-20
6735386930,-9,76,25,48,19,15,1,8
6735386930,-24,-32,-48,-46,-11,-9,3,-14
6735387664,-4,-34,58,37,16,9,2,-1
6735387664,38,62,12,-31,-8,0,3,9
6735409367,36,84,39,81,-19,-14,-9,6
6735409367,-65,-53,-57,-54,14,8,25,-12
6735410141,-15,31,-32,1,-23,-13,-33,-8
6735410141,-1,-9,-5,-62,-2,6,-10,-1
6735425257,14,-59,2,-31,-7,-3,12,0
6735425257,26,31,75,54,-6,3,-2,5
6735431240,30,17,4,-13,6,3,-10,10
6735431240,-13,-15,-3,26,2,1,25,4
6735446951,-41,-5,-31,-36,-11,-1,-37,-16
6735446951,22,4,-46,-60,1,0,5,0
6735447525,7,17,10,21,3,-4,7,5
6735447525,-14,-12,8,26,16,-4,-7,-5
6735469444,-7,37,4,28,5,5,12,2
6735469444,-12,-56,39,10,5,3,10,-4
6735470232,10,-3,-67,-8,-22,-16,-32,0
6735470232,3,61,23,20,-9,1,6,2
6735486666,7,-20,-2,-11,-5,-9,-1,-2
6735486666,1,4,-13,-8,-10,-4,-18,-2
6735491212,-5,28,21,1,4,0,6,-8
6735491212,8,-24,-12,-6,1,-4,3,7
6735506732,-27,-52,-24,-11,-2,-4,-4,-12
6735506732,16,26,14,26,9,14,1,7
6735507548,3,-47,-2,-27,-6,2,20,-5
6735507548,7,-31,-8,13,6,8,-3,-3
6735529486,-1,3,1,-11,1,-20,3,-12
6735529486,-7,-49,-5,14,-7,3,33,0
6735530139,-10,2,13,-7,12,17,30,2
6735530139,9,-2,-16,-4,-7,-18,-15,0
6735545172,-4,-22,-10,-17,-5,3,-4,-2
6735545172,11,-7,11,35,-14,-13,-2,0
6735551272,-11,3,3,11,12,-4,-4,-6
6735551272,10,6,4,-12,6,12,-6,3
6735566947,-1,-34,-23,-23,-1,-7,-12,1
6735566947,2,10,-16,4,-17,-4,-17,1
6735567627,-4,20,25,19,22,11,20,4
6735567627,-1,-5,2,4,-5,-7,-10,-1
6735589338,-7,4,-17,-26,-5,7,1,-2
6735589338,2,28,14,19,7,-1,-8,-2
6735590145,-1,33,-5,-8,-12,-11,-12,-1
6735590145,-4,1,-22,-23,-9,-5,-3,-7
6735605183,4,10,15,23,10,1,-1,3
6735605183,9,22,0,-3,-7,0,-11,-2
6735611261,2,-2,6,8,15,6,10,7
6735611261,-3,-12,-3,21,3,5,-1,-2
6735626893,4,-11,-1,-33,-4,-8,0,1
6735626893,0,-9,5,7,7,6,0,1
6735627716,-5,-13,6,-13,-5,-5,-9,-4
6735627716,0,-8,-10,3,-1,-1,1,0
6735649299,-6,-2,-4,-8,-14,-2,-4,-6
6735649299,-2,1,3,8,9,-1,-2,-1
6735650191,3,9,0,-25,-4,-2,-5,1
6735650191,-5,-8,14,32,-14,-5,-2,-5
6735665153,-6,-17,-7,-5,7,5,5,0
6735665153,-1,0,-6,-31,2,-3,-11,-3
6735671255,-6,-22,-11,8,8,7,9,0
6735671255,-4,-7,0,-10,-6,-6,-8,-5
6735686931,12,9,-1,2,1,11,9,7
6735686931,-4,-1,9,7,3,-2,-2,-2
6735687616,-7,-3,2,-4,-16,-15,-13,-8
6735687616,-11,-11,-7,-11,1,1,-3,-4
6735709437,3,1,-1,1,2,1,12,5
6735709437,-4,-1,10,13,2,-1,-5,-3
6735710117,-1,-6,-2,-11,-4,-2,0,-1
6735710117,-4,-12,-12,-8,2,3,1,-3
6735725168,4,10,9,16,6,5,0,2
6735725168,-5,-12,-11,-5,-1,-8,-9,-3
6735731147,7,8,0,-3,-9,2,-4,-1
6735731147,1,-8,-1,-3,1,-8,3,2
6735746259,4,4,-2,-4,-2,5,1,-5
6735746259,0,3,7,11,4,8,16,7
6735753756,-4,-12,1,-2,-5,-5,0,-1
6735753756,0,2,-7,-6,0,0,-3,-3
6735769322,-12,0,-7,-1,-5,-12,2,-4
6735769322,-6,-10,-2,-4,-3,0,-17,-2
6735770171,13,-8,-2,-1,-7,-7,-3,-1
6735770171,6,0,0,1,2,6,14,2
6735785124,-6,-4,2,1,-1,-23,-12,-1
6735785124,-7,1,-4,1,2,37,-33,0
6735791281,-11,14,-3,0,-2,-12,-3,-3
6735791281,9,9,-1,-1,0,6,-5,-1
6735806175,8,6,6,-2,-5,-2,-5,1
6735806175,4,-4,-9,-4,2,-8,8,0
6735813787,-14,14,-3,-13,-6,2,-4,0
6735813787,-17,-2,-2,-3,2,1,-2,-4
6735829441,-4,-2,-3,4,-1,0,-5,-1
6735829441,19,25,11,5,-1,-6,5,4
6735830145,-2,11,-4,-2,-6,-5,-8,-1
6735830145,-24,-3,-8,10,7,2,7,-1
6735845118,2,85,4,-34,-12,-1,4,-4
6735845118,-14,-74,-41,13,5,-5,-3,-5
6735851232,11,77,8,1,-1,-2,7,5
6735851232,5,-7,21,8,18,12,7,5
6735866257,-8,-35,-12,31,3,10,-6,-5
6735866257,-1,7,2,-12,-13,-20,-13,-13
6735873656,21,36,-11,-64,-8,2,24,7
6735873656,-10,72,15,62,-15,-4,-9,-4
6735889374,-21,-99,-12,-61,-1,-5,-20,-9
6735889374,20,94,3,22,7,-5,-1,-3
6735890100,-26,-76,3,12,-3,-4,-4,-4
6735890100,33,21,17,-30,-11,0,9,11
6735905219,-15,-84,0,66,0,3,23,0
6735905219,-7,35,16,-63,1,-8,2,-5
6735911123,2,8,-5,30,6,-2,-34,-6
6735911123,5,-8,-25,-31,-2,5,12,5
6735926233,14,22,1,15,-5,-3,-5,6
6735926233,-9,-35,22,31,3,6,21,3
6735933716,9,-11,-26,-38,0,-1,-31,2
6735933716,2,-38,7,15,14,-5,-9,-1
6735949439,-17,15,5,0,-3,1,-7,-8
6735949439,1,48,-19,-21,-10,1,12,0
6735950065,-9,-3,3,-1,-13,-16,-20,-12
6735950065,12,26,4,2,11,-7,6,-6
6735965145,-12,24,-15,-22,1,11,8,5
6735965145,-3,-44,0,25,-2,-10,-7,6
6735971230,2,-16,9,25,14,17,18,1
6735971230,16,-50,-17,-34,-21,-16,-7,2
6735986174,9,-17,6,34,22,5,4,3
6735986174,8,14,21,-3,4,5,3,0
6735993725,-24,-44,-8,-17,-16,-7,11,-8
6735993725,-15,-39,-13,4,1,4,17,0
6736009409,19,45,-3,-29,-7,0,-5,0
6736009409,-12,-73,-7,8,-5,10,-15,-4
6736010131,10,10,12,25,4,-8,7,1
6736010131,-7,-2,-14,-4,8,-1,-10,-4
6736025109,7,5,16,-8,-16,-10,-5,2
6736025109,-6,-16,4,6,12,-6,6,-2
6736031161,2,-6,-13,3,-3,9,3,1
6736031161,-10,2,-3,-23,-2,-2,-12,-4
6736046254,2,5,-9,-4,4,-3,-2,0
6736046254,1,12,4,10,-15,-4,-4,1
6736053595,-8,9,14,8,6,-5,-2,-3
6736053595,-1,12,-4,-8,-11,4,-13,-3
6736069450,20,27,-2,18,26,10,12,9
6736069450,-14,12,-2,-18,-17,-15,3,-10
6736070191,-1,-3,-6,-6,22,8,2,1
6736070191,-4,9,0,11,4,5,-4,0
6736083637,-4,1,6,-3,-18,-18,-14,-7
6736083637,0,-5,1,-9,-20,-13,-6,1
6736091240,3,-13,-2,16,14,10,10,2
6736091240,7,23,14,7,10,1,13,-4
6736106155,-4,-9,-4,-12,-1,21,8,1
6736106155,13,24,2,0,-6,-15,-13,3
6736113622,-3,-19,-11,-14,-27,-11,-2,-5
6736113622,-7,0,-8,2,7,2,5,-3
6736129398,0,-5,-2,14,1,-5,-4,-1
6736129398,8,-12,-11,9,12,9,5,2
6736130109,6,18,3,-12,0,1,1,1
6736130109,-8,-7,-2,-8,-8,-6,-5,-3
6736143764,10,17,2,3,-2,-6,0,-1
6736143764,-8,-11,-4,11,10,9,4,0
6736151226,-10,-6,-4,3,-2,-4,-9,-5
6736151226,-6,-5,6,4,-7,0,-7,-2
6736166253,9,2,-9,-12,2,2,6,1
6736166253,1,-10,-3,-4,2,5,6,0
6736173690,-1,-4,2,8,3,4,7,3
6736173690,-6,-2,-4,-8,-12,-14,-14,-4
6736189337,-11,-20,-4,-5,-7,-5,3,-5
6736189337,1,0,3,-7,5,10,-3,0
6736190180,3,-8,-1,-2,-8,-3,23,-1
6736190180,7,-4,-2,1,-2,0,-1,5
6736203665,-2,-5,4,-2,1,-14,-1,-1
6736203665,-8,-6,-8,-8,0,3,-7,-5
6736211182,-4,9,-4,-2,-7,-13,-8,-9
6736211182,-2,-8,-1,5,1,18,-1,2
6736226241,-6,-5,-8,-8,-4,-13,0,-1
6736226241,-2,-5,1,-7,-2,3,-14,-5
6736233729,3,-2,4,4,0,-1,17,4
6736233729,3,2,-2,-1,-1,-7,-11,-4
6736249421,-4,-6,0,-2,1,7,5,1
6736249421,-12,-7,-2,-4,-3,-5,-1,-1
6736250088,0,9,3,1,-1,-3,-20,-4
6736250088,-2,-6,-5,0,0,15,-1,7
6736263736,-8,-3,0,-4,-3,-7,7,-6
6736263736,12,-7,-2,-3,1,-15,17,7
6736271196,-15,1,9,4,3,12,-19,-3
6736271196,0,21,9,4,0,-8,2,0
6736286270,-5,-41,-21,-1,-2,19,-11,0
6736286270,24,38,3,-1,-2,-3,4,5
6736293676,-33,-42,-3,7,1,1,-4,-10
6736293676,3,15,2,0,0,-3,3,-2
6736309376,6,26,7,-19,-9,-6,-10,0
6736309376,0,4,-20,1,-5,4,-6,-8
6736310155,-5,1,11,34,5,-7,-7,0
6736310155,-6,-49,-16,-18,-5,-8,0,1
6736323700,16,-21,-45,-32,-12,-6,-16,-7
6736323700,-29,14,-30,18,21,17,4,0
6736331227,10,70,58,34,5,3,3,-1
6736331227,-19,-3,12,-22,-12,-8,0,-5
6736346175,29,58,28,0,3,0,2,10
6736346175,6,-22,-52,-18,5,-3,2,-1
6736353726,-16,-31,-13,39,-13,-7,-5,-3
6736353726,13,23,23,-33,-3,4,22,8
6736369377,-19,-36,-36,22,3,-5,-30,-15
6736369377,12,72,44,5,-10,-4,-4,5
6736370090,12,-22,-3,-25,7,5,14,2
6736370090,19,17,-2,27,-3,3,7,-2
6736383772,-15,22,25,-10,5,4,17,12
6736383772,-26,-24,2,-38,-11,-3,-3,-6
6736391232,7,14,-24,1,1,-8,-13,0
6736391232,10,11,-6,18,-9,-7,-31,-5
6736406215,8,90,10,-25,5,2,22,-1
6736406215,7,-3,22,15,10,13,13,7
6736413666,23,30,-2,-42,-23,-8,7,10
6736413666,-5,-12,-10,25,6,-1,-12,-4
6736429354,-25,16,5,-6,3,-2,-4,-12
6736429354,-19,-53,22,12,-10,-9,-21,-8
6736430068,7,-40,-15,-42,-9,0,9,0
6736430068,-19,-34,-19,-18,3,-23,-8,-4
6736443700,8,-78,7,40,10,21,17,3
6736443700,18,-12,17,5,13,15,16,6
6736451128,-4,-6,-10,-15,6,-1,-16,-4
6736451128,0,-6,-6,1,-4,-3,3,-1
6736466260,1,6,7,-9,1,-11,-6,3
6736466260,-11,-4,-8,-3,-23,-3,-4,-6
6736473707,9,12,-1,12,7,-7,-5,1
6736473707,8,2,10,8,15,9,5,3
6736489395,-6,-10,17,41,-6,-3,2,-3
6736489395,-1,-2,-11,-19,8,3,3,-2
6736490098,-5,-19,-17,-24,-14,-7,1,-1
6736490098,-21,-8,-11,-15,-10,-11,0,-5
6736503659,14,11,7,20,17,6,-11,-3
6736503659,5,4,-4,8,-1,-3,2,4
6736511248,-2,14,20,5,-22,-2,-4,-2
6736511248,-7,-11,-29,-16,14,0,-13,-8
6736527637,-8,6,-10,-7,-15,-3,6,2
6736527637,3,14,6,-13,-14,-10,-6,-1
6736533794,8,17,-15,5,4,4,4,-2
6736533794,7,37,16,13,0,4,4,3
6736549166,-3,0,12,8,5,4,0,-1
6736549166,-7,-5,-12,-2,8,-10,-19,2
6736556862,-1,0,-14,-2,7,5,-3,-3
6736556862,5,-5,3,0,-18,-6,-12,-3
6736563796,-1,-18,-27,-21,-9,3,-1,-1
6736563796,-2,0,16,15,-8,-13,-16,-7
6736571149,-11,-8,0,-2,3,2,1,-1
6736571149,3,-23,-18,-17,5,9,4,3
6736586139,-14,-13,-6,-9,-2,-7,1,0
6736586139,3,3,-9,-16,4,0,2,-1
6736593760,-8,-26,10,19,0,4,9,-2
6736593760,-1,-2,6,13,4,1,17,-2
6736609302,12,11,15,10,4,7,-10,6
6736609302,-16,-3,-6,5,0,5,6,-5
6736610113,7,7,0,-11,3,-3,-4,4
6736610113,8,13,10,5,0,-10,-4,2
6736623684,-10,-9,-7,-4,-5,3,3,-10
6736623684,1,-2,4,4,1,1,-6,-3
6736631123,3,8,6,-2,6,13,-4,10
6736631123,-13,-12,-10,-4,-4,-13,10,-5
6736646206,-2,-13,-12,-7,-10,7,-34,-3
6736646206,-7,-5,0,-2,0,-6,15,-7
6736653695,10,-6,1,-1,2,-1,-6,-4
6736653695,5,-2,5,7,-3,-4,-6,1
6736668757,-11,-13,4,-3,-2,5,18,-5
6736668757,0,-13,-7,-1,1,-4,4,3
6736676949,10,2,-2,-2,3,-1,-15,1
6736676949,-9,-9,-6,1,-3,15,6,-6
6736683684,0,-6,1,-2,-4,-16,-21,1
6736683684,-2,3,1,0,0,8,14,0
6736691258,-7,-2,-1,0,-3,-11,4,-4
6736691258,10,5,-2,-8,-1,13,-2,1
6736706196,-4,20,11,1,1,-4,-5,-3
6736706196,6,-8,3,6,-2,4,8,2
6736713702,0,57,-10,-3,2,-6,3,0
6736713702,-30,-84,-21,-6,-11,3,-13,-5
6736728740,-2,18,15,19,0,-3,3,-2
6736728740,-7,-17,-18,-16,-8,-4,-16,-8
6736736945,7,-28,3,-13,-9,-4,0,-3
6736736945,-1,39,-2,-2,13,5,4,2
6736743707,-13,-36,2,10,9,3,9,0
6736743707,31,47,25,-5,0,0,3,10
6736751230,-8,-82,-9,17,-10,-6,-3,-6
6736751230,27,-3,40,23,-2,-2,2,10
6736766236,-37,40,-9,-22,-7,-10,-10,-14
6736766236,-2,-36,-11,-33,-4,-3,-3,-3
6736773743,-5,69,-3,20,1,-2,-2,-2
6736773743,29,50,18,-3,-6,1,-1,9
6736788742,24,-28,-1,36,0,-9,5,8
6736788742,-29,-53,-36,-18,6,3,-6,-5
6736796680,-14,29,8,-8,8,16,7,-6
6736796680,-4,51,-7,0,2,-1,2,-1
6736805092,-4,-4,-2,-18,-14,-8,16,0
6736805092,15,36,1,15,0,-5,-26,-4
6736811181,18,-53,1,0,-2,-1,5,11
6736811181,-8,68,10,-5,-7,-4,-3,-6
6736826239,8,18,3,-10,4,1,-2,-6
6736826239,-27,-17,2,8,-8,-18,-3,0
6736833660,-9,-24,-6,-3,3,27,5,0
6736833660,20,-27,-5,-1,-5,0,-5,-2
6736848703,-3,31,-5,0,7,-2,-2,8
6736848703,-3,39,9,8,-4,-2,3,0
6736856938,6,-4,7,5,-13,0,-4,0
6736856938,-10,-2,1,-22,0,-9,2,-3
6736871894,18,-56,-33,-23,9,8,1,3
6736871894,-13,11,13,15,8,1,-8,-8
6736872503,9,13,-6,-6,-11,-11,-3,1
6736872503,-10,-13,6,4,1,4,-1,-1
6736886200,-4,-4,2,-7,0,-6,0,-3
6736886200,8,-25,-11,-2,-7,-1,6,3
6736893710,-12,16,1,-22,-9,-9,-3,-6
6736893710,-5,-34,-10,19,13,0,-1,-3
6736908718,-16,6,-4,-4,-8,-7,-6,-5
6736908718,12,-6,10,20,11,12,13,9
6736916792,-6,30,-4,-10,5,3,-2,-3
6736916792,-6,-14,-15,-19,-6,-12,-2,-3
6736931825,17,-8,-2,-7,-3,4,0,4
6736931825,-3,15,0,-1,-5,1,2,-1
6736932577,-11,-8,3,-1,-2,-8,-7,-5
6736932577,-4,-4,-3,28,13,6,1,-2
6736946254,9,5,3,-1,-7,-9,-3,-1
6736946254,-7,-5,-4,-11,-5,-4,-4,-6
6736953605,-3,1,-3,10,13,18,3,0
6736953605,-12,-6,-2,-28,-12,-5,-4,-3
6736968759,1,-9,-6,-3,-10,-1,0,1
6736968759,-2,9,1,9,3,-2,3,-2
6736976889,6,-28,-19,-23,-7,-15,-10,0
6736976889,-6,-2,5,13,10,5,2,-1
6736991880,-3,6,13,22,17,16,1,-2
6736991880,9,11,-8,-16,7,6,11,1
6736992573,0,11,1,5,-9,-24,-19,-4
6736992573,-25,-15,14,7,-36,-8,-1,-9
6737006235,-10,-12,-17,-17,5,-14,-5,-6
6737006235,1,1,-9,12,-17,-4,0,-8
6737013734,10,8,-8,-13,28,14,31,11
6737013734,3,0,-8,-29,7,-3,-8,0
6737028682,-9,4,1,1,-11,-5,-4,0
6737028682,-4,-14,3,1,-13,8,-3,-5
6737036902,-10,-18,8,8,-2,0,6,-6
6737036902,7,21,-14,11,6,-1,-2,2
6737051885,-2,-6,0,-6,-4,-1,-4,1
6737051885,4,2,5,-21,0,-3,-6,2
6737052596,-7,-3,3,9,-9,-3,-3,-5
6737052596,9,13,-6,-3,0,0,-4,0
6737066165,-6,-2,4,-2,-9,-6,-17,-9
6737066165,-4,0,-6,-5,-4,-9,-3,-1
6737073733,7,0,-1,3,6,-4,7,4
6737073733,-5,-10,-6,2,5,16,12,-2
6737088596,4,-1,-7,0,-6,1,-9,0
6737088596,4,1,7,6,5,8,18,12
6737096771,-6,5,-1,-1,5,7,-10,-5
6737096771,9,2,6,7,0,-14,-12,3
6737112327,4,3,2,-2,-3,-5,5,-2
6737112327,4,1,-3,2,8,5,-3,0
6737113009,0,-2,2,2,0,-18,10,-2
6737113009,-15,-22,-5,-5,-7,12,25,0
6737126208,-2,-7,-2,-1,-1,22,14,0
6737126208,-3,-10,-2,-2,2,-4,-14,-3
6737133598,-1,-14,3,4,1,0,6,0
6737133598,3,-5,-2,-2,-5,-8,-9,-6
6737150065,-9,10,0,0,4,-7,-15,-1
6737150065,13,4,-3,0,-4,-3,21,-2
6737156882,-5,-1,0,-3,-5,11,-3,4
6737156882,-1,-3,-4,-4,-1,-9,-11,0
6737171796,0,-5,3,2,2,-20,2,-1
6737171796,-10,-9,-2,1,-1,19,-9,-3
6737172664,2,6,0,-1,-1,-1,-10,-2
6737172664,1,-4,-2,3,1,1,-1,0
6737186174,-3,-2,-3,-13,-6,-4,9,2
6737186174,3,4,0,3,-3,-13,-10,-3
6737193669,10,33,-5,-11,-8,-6,-8,1
6737193669,-5,-32,-6,18,16,14,7,1
6737208629,-12,-11,17,15,8,12,7,2
6737208629,-9,44,-6,-16,5,-2,-7,-5
6737216702,3,-62,-27,-12,-8,0,-7,-1
6737216702,-16,58,15,-8,-10,-7,-6,0
6737231806,19,-23,15,34,1,-2,-7,-3
6737231806,-13,-24,-8,-48,2,-1,0,-1
6737232625,11,-4,-23,3,-4,2,9,4
6737232625,-6,14,-7,-9,-4,-6,-7,-7
6737246140,6,-5,5,3,5,6,7,3
6737246140,2,-54,18,48,-15,-7,-5,2
6737253663,-18,20,-1,-32,9,-5,-8,-10
6737253663,10,8,-9,-10,-3,0,-1,5
6737268678,11,35,4,-5,-5,3,2,3
6737268678,23,-20,-1,12,15,4,1,2
6737276766,-12,23,14,14,-2,0,-6,-5
6737276766,-7,-11,2,5,4,8,8,-3
6737291705,-9,45,0,-23,-7,-7,-18,-2
6737291705,-29,-71,-13,19,-10,-13,-7,-7
6737292521,-9,-2,1,2,-1,3,-9,-7
6737292521,4,9,-23,-39,-10,3,4,4
6737306164,7,-1,-10,8,14,5,18,4
6737306164,13,79,15,4,1,-2,-6,5
6737313545,4,13,14,11,0,-2,-4,-3
6737313545,11,0,2,22,-9,-4,-4,-2
6737328619,-21,-36,-15,-23,-1,-10,-3,-7
6737328619,2,-2,2,13,3,5,6,4
6737336755,-8,-4,18,20,1,1,9,4
6737336755,-12,-75,-12,-4,12,1,-4,-3
6737351876,11,-12,-10,-14,-8,-2,1,-6
6737351876,-2,10,2,-2,-1,-6,-5,-5
6737352566,-5,-14,-7,-6,-14,-5,1,5
6737352566,10,-7,-1,-2,7,10,8,1
6737366186,-4,1,0,15,-3,4,-7,1
6737366186,11,-1,-16,-26,11,-2,1,-1
6737373559,-4,27,-1,-2,-4,1,2,0
6737373559,-10,-16,-6,-8,-16,-14,-9,-5
6737388677,-6,11,5,2,-5,-5,-4,0
6737388677,-11,-40,-24,-19,-13,-11,-3,-10
6737396904,16,-4,2,2,3,9,-9,0
6737396904,-8,22,2,5,9,-12,-7,-5
6737411839,19,50,7,12,3,20,20,11
6737411839,-9,-19,-3,-8,-4,-16,-3,3
6737412586,-17,-13,4,5,-12,6,-5,-6
6737412586,-6,-12,-2,0,15,8,7,-2
6737426151,8,5,2,-3,-3,-5,-9,0
6737426151,1,26,2,-10,-8,-1,0,-1
6737433669,12,-2,-5,5,4,-8,2,0
6737433669,4,29,18,1,-4,-1,0,3
6737448584,-6,-21,-11,-15,-6,-5,1,-4
6737448584,-16,8,3,4,14,13,6,-5
6737456854,-5,-13,0,7,22,-2,-27,1
6737456854,3,-7,4,10,1,-3,6,0
6737471807,-11,-11,-2,2,-2,10,-4,-5
6737471807,12,15,3,-1,7,-5,-2,0
6737472599,11,10,2,6,2,-3,-8,6
6737472599,-4,-19,-19,-22,-20,-5,2,0
6737486100,-11,-14,-1,-2,10,-8,-5,-7
6737486100,-3,15,10,3,4,10,11,3
6737493611,-6,-7,-11,-17,-8,10,9,-4
6737493611,5,13,10,7,-5,-10,-13,-1
6737508548,-2,-9,-9,4,-4,-3,1,-3
6737508548,3,7,-11,-14,-4,3,0,-2
6737516748,-8,-17,0,5,6,-11,10,-3
6737516748,2,2,2,9,-10,3,-10,-1
6737531829,-1,-3,-11,-30,-5,-4,-2,-3
6737531829,-19,0,17,31,6,-1,-3,-2
6737532589,-1,-3,-9,-21,-15,-10,4,-1
6737532589,4,16,23,29,-8,2,-10,-1
6737546134,0,-8,-10,-18,14,2,2,-3
6737546134,9,17,-11,-3,-2,7,2,5
6737553724,-4,4,1,-8,-10,-10,-5,-4
6737553724,-10,-6,-1,6,7,9,5,-4
6737568674,-1,-5,6,13,-1,-2,-2,0
6737568674,0,-6,4,-7,-12,-3,-3,-5
6737576755,2,2,0,1,2,-5,-10,2
6737576755,5,-7,-8,-10,-1,-6,14,-2
6737591803,-7,0,2,4,-5,13,-5,4
6737591803,5,-7,-9,-8,-5,-2,-6,-2
6737592502,-13,-4,8,7,7,-8,-4,-6
6737592502,0,-11,-2,-5,-3,0,11,5
6737606053,6,0,-3,-2,-7,-9,4,-1
6737606053,9,-2,0,0,-5,-2,-21,0
6737613598,0,-6,-2,-1,-2,-1,47,-3
6737613598,7,-4,0,-3,10,19,-37,3
6737628591,-1,2,1,10,7,3,0,3
6737628591,-2,4,0,-2,-9,-8,10,0
6737636874,-2,-16,-6,-2,-2,0,24,0
6737636874,15,31,2,-10,-6,-14,-9,-1
6737651191,6,-1,-5,-1,-7,-2,-7,1
6737651191,-8,16,5,1,-1,-8,0,-3
6737659298,5,-7,-1,-5,-6,0,-24,-2
6737659298,-16,-56,-12,-1,0,1,2,-5
6737666193,20,12,4,1,-3,-9,2,0
6737666193,2,19,11,16,6,5,5,3
6737673606,-2,32,-16,-15,0,8,-6,3
6737673606,6,27,0,4,8,1,2,0
6737688655,-4,-89,0,2,-7,-9,-3,-3
6737688655,-6,1,0,5,-4,1,-7,-5
6737696881,6,5,6,12,12,12,4,6
6737696881,-6,24,-14,-17,-7,-10,-1,-4
6737711186,4,30,5,-11,0,0,-5,2
6737711186,-10,-9,-14,-6,-1,-1,1,-1
6737719348,-15,1,7,10,-7,-2,-11,-6
6737719348,10,-27,6,-10,1,-4,5,5
6737726164,14,70,21,19,5,0,3,4
6737726164,-6,-25,-25,-25,-9,-2,-3,-6
6737733629,-10,12,15,17,-3,-4,-13,1
6737733629,-22,-33,-14,-32,-10,-5,-8,-7
6737748644,-12,49,9,12,3,0,-1,-5
6737748644,15,9,-7,-6,3,5,2,2
6737756802,-1,-13,-5,3,1,2,1,-3
6737756802,-11,-44,4,-15,-16,-4,-4,-3
6737771149,1,-32,-8,29,10,-3,0,-1
6737771149,4,-12,19,13,8,1,-3,7
6737779418,3,5,-2,-7,-9,9,1,-3
6737779418,-3,36,-6,-15,-2,-8,8,0
6737794257,-16,4,-15,-28,-7,10,9,-8
6737794257,3,0,15,30,-3,-1,-8,8
6737795049,10,13,-8,-21,4,-7,-7,-1
6737795049,5,14,7,20,1,3,6,-1
6737808711,-10,-36,-15,-11,-14,-5,-15,-11
6737808711,1,-11,-4,-5,6,2,5,4
6737816879,-9,11,13,3,-2,-7,-5,-3
6737816879,-5,29,-2,5,-3,2,4,-1
6737831151,18,-5,-2,-9,-9,-6,-1,1
6737831151,-8,19,10,9,7,-11,-5,-3
6737839421,-11,-51,-18,-1,15,11,3,-2
6737839421,15,-4,1,12,7,7,-7,7
6737854309,-4,2,-1,-11,-10,-14,-5,-2
6737854309,-6,-46,-16,-20,-13,-9,4,-5
6737855014,14,24,5,-1,-4,7,-1,0
6737855014,-22,6,-2,10,12,0,-2,-6
6737868673,8,-8,-3,4,-1,3,0,1
6737868673,-1,-1,-2,-7,-4,-4,-3,2
6737876776,3,4,-5,-7,-5,-7,-7,-1
6737876776,2,-5,-1,3,-4,-3,15,2
6737891149,-14,7,5,1,12,1,2,-2
6737891149,2,-1,-5,-11,-11,10,-2,-3
6737899351,8,5,-2,8,1,-9,3,-3
6737899351,5,8,2,1,11,-1,-5,2
6737913651,-19,-11,-2,7,-7,-3,-1,-1
6737913651,3,16,3,0,-5,-4,2,-3
6737922544,7,-2,4,-3,-3,-11,-2,5
6737922544,-3,-1,-6,-2,-3,2,-3,-2
6737928654,-11,-11,-4,-6,9,5,0,-8
6737928654,-2,2,0,0,-24,4,9,1
6737943673,6,14,-3,-6,-1,-6,-6,3
6737943673,12,-2,4,11,14,0,1,-2
6737951092,-1,6,5,15,14,22,12,6
6737951092,2,12,-2,-12,-1,-18,-3,-1
6737960069,-10,-16,-2,-11,-2,1,2,-3
6737960069,-7,-2,-4,-4,-12,-7,4,-2
6737973680,18,15,-9,-17,-32,-15,-21,5
6737973680,-4,-9,1,17,16,-10,0,-5
6737982526,-9,-11,5,11,19,0,20,2
6737982526,8,-2,-16,-1,-9,17,1,-3
6737988652,-5,-11,-4,-13,2,10,28,7
6737988652,-3,-11,0,8,10,8,3,0
6737997569,8,-3,-8,-12,0,9,-5,2
6737997569,-2,-7,-11,-20,-6,-14,-1,-4
6738011162,-11,-1,-1,-31,-25,-15,-11,-9
6738011162,2,7,-17,9,10,4,-9,-2
6738020064,11,-15,-9,-8,11,5,7,3
6738020064,-8,-5,23,24,-8,-4,-11,-2
6738033634,-1,-6,-8,-1,-13,-13,-10,-4
6738033634,-10,-3,-13,-35,12,1,1,-3
6738042524,-12,-10,-9,-1,-15,-1,-10,-6
6738042524,-4,12,6,5,2,-19,-12,-1
6738048689,5,1,16,25,10,11,-3,0
6738048689,-1,6,14,2,-5,0,-11,-3
6738057565,8,-3,4,11,9,10,30,10
6738057565,-9,-15,-1,-5,-6,19,-31,-8
6738071154,7,4,4,9,7,-5,-4,0
6738071154,-8,-2,-3,-4,0,1,24,-1
6738080017,12,15,-3,-13,-17,-16,-4,2
6738080017,-9,-13,1,7,7,6,-2,2
6738093718,-1,-20,-9,-2,3,-21,-8,-16
6738093718,-14,51,11,-4,3,25,-44,11
6738102551,-13,-2,13,15,-5,-10,7,-6
6738102551,9,3,0,-3,0,-3,23,-3
6738108593,-5,-5,-7,-3,8,3,-17,4
6738108593,19,-12,2,-2,-11,-5,5,1
6738117543,-5,-6,-6,-2,-6,1,-18,-11
6738117543,9,46,21,8,8,1,3,11
6738131134,-14,-53,-13,-11,-5,4,7,-5
6738131134,12,31,10,-1,-9,-16,-5,-5
6738140018,2,-5,-10,15,-1,0,-15,1
6738140018,-7,14,-18,-28,-5,-4,-2,-10
6738153692,5,47,-4,-5,7,0,8,0
6738153692,-5,-12,9,34,4,4,11,3
6738162516,10,-5,-10,-11,1,3,0,6
6738162516,-19,-31,-11,-6,-6,-8,-8,-8
6738168659,16,32,25,24,1,2,-2,5
6738168659,22,23,24,14,-1,2,6,6
6738177529,-43,75,2,-48,-9,-2,-21,-25
6738177529,46,-61,-6,4,-7,-8,7,13
6738191178,-46,-35,2,13,0,1,12,-3
6738191178,9,-35,-81,-22,8,6,-15,-4
6738200053,-5,-66,-5,26,-6,-5,1,9
6738200053,-1,33,40,-14,9,7,5,-8
6738213647,15,79,11,11,-8,-5,-11,6
6738213647,-28,-79,-17,-12,-12,-10,7,-9
6738222500,14,70,-4,-3,9,10,14,7
6738222500,-8,1,-22,4,1,-2,-13,-2
6738228690,13,17,15,15,11,5,-1,2
6738228690,-6,9,15,-5,-4,-10,2,-4
6738237515,1,-2,9,-4,-7,1,-15,-5
6738237515,4,50,5,2,-11,3,15,5
6738251156,-12,-47,-22,-9,-6,-11,-7,-1
6738251156,-11,43,2,-9,4,0,0,-12
6738260026,6,13,7,-4,-4,3,5,3
6738260026,-1,-17,-2,21,6,-1,17,2
6738273682,-10,-38,-11,8,27,17,-15,-6
6738273682,7,-21,3,-18,-23,-7,0,1
6738282586,1,-36,4,3,-7,-8,-13,-6
6738282586,-11,-1,-8,3,-2,-3,5,1
6738288708,17,-27,-5,-15,-6,3,-23,7
6738288708,8,-14,26,13,9,-4,20,5
6738297535,-13,-33,-11,-4,-2,-12,-2,-5
6738297535,-23,-16,-12,-15,-15,9,-12,-7
6738311157,4,-9,-9,-20,-5,-8,-6,-7
6738311157,5,-19,-2,8,5,0,0,2
6738320016,-5,-7,-1,6,5,7,4,2
6738320016,10,-5,-5,1,2,-6,-8,1
6738333637,5,16,-1,-17,-6,-3,16,2
6738333637,-10,2,-7,-6,-9,-3,-18,-7
6738342547,-4,-6,5,13,9,7,8,-2
6738342547,3,3,6,6,1,-9,-5,-1
6738348548,5,13,0,-5,-4,15,2,1
6738348548,-5,15,-6,-12,-4,-10,4,-3
6738357485,0,-11,5,8,4,1,-7,-1
6738357485,4,4,3,6,10,0,5,1
6738371054,-9,0,1,-1,-5,-8,5,1
6738371054,-3,1,-2,-3,2,5,-8,-7
6738380063,-7,4,-2,4,-1,5,1,0
6738380063,5,1,1,-5,14,-4,3,-3
6738393597,-10,4,-6,-3,2,4,2,-3
6738393597,0,5,5,6,6,-1,-7,2
6738402531,2,-7,-12,-22,-22,-19,-4,-3
6738402531,4,7,5,38,13,14,5,1
6738408661,-2,-2,2,-19,-5,-12,-2,-3
6738408661,4,4,0,-5,11,10,4,1
6738417550,-1,11,-14,-29,-28,-18,-10,-6
6738417550,-12,-20,-9,1,0,1,-5,-2
6738431135,8,4,9,22,11,-6,6,2
6738431135,-1,-8,-11,0,-2,3,1,2
6738440073,0,-8,1,-12,-8,-2,0,-3
6738440073,1,-10,-6,-28,-20,-13,-1,1
6738453639,-1,10,12,12,-1,-2,-12,-3
6738453639,-10,-1,1,7,-4,-3,1,-2
6738462583,10,7,-1,1,5,2,-3,3
6738462583,0,4,-8,-6,-6,-5,-5,-2
6738468555,-16,-20,-12,-5,2,5,3,-5
6738468555,12,13,0,-2,-4,-5,20,7
6738477548,-9,1,11,16,11,12,-1,-2
6738477548,2,2,-7,-9,-12,-17,-33,-1
6738491118,12,8,0,-2,1,2,31,6
6738491118,2,-4,-4,-3,-8,-12,-5,0
6738500021,3,-6,-5,8,14,24,18,0
6738500021,-23,-20,-5,-9,-7,-4,-9,-9
6738513635,-8,0,-5,-5,-4,2,-14,-3
6738513635,4,-7,-5,-3,-5,0,29,1
6738522518,7,12,15,13,13,3,3,3
6738522518,9,5,1,-2,1,13,17,15
6738528557,-10,-7,-7,-2,-9,-8,-14,-10
6738528557,-6,-9,5,0,3,12,25,2
6738537528,6,-8,-7,-3,-4,-27,-8,-8
6738537528,-11,10,5,2,1,9,6,1
6738551059,3,-16,-3,-4,-4,-3,2,3
6738551059,-5,-17,1,-2,0,-4,-23,-2
6738560013,-2,11,-1,-5,-3,3,-3,-5
6738560013,34,29,9,8,3,-11,6,9
6738574335,-30,-39,0,3,2,-1,1,-5
6738574335,-28,8,-12,-8,-3,3,-23,-13
6738581147,-6,-11,1,10,2,-6,1,-3
6738581147,10,-66,-9,-18,-3,4,-4,1
6738588571,-5,31,-14,-10,-3,3,5,-4
6738588571,-4,5,23,51,-8,-2,-11,6
6738597520,-5,-24,-18,-39,15,2,0,0
6738597520,2,-6,-21,-9,-17,-10,-4,-4
6738611001,19,27,20,19,7,10,2,0
6738611001,-1,-12,-18,-9,10,1,-3,-1
6738619990,15,22,25,31,-3,-4,1,6
6738619990,-18,5,2,-1,4,2,-7,-11
6738634238,-2,-8,-7,-5,-12,-15,-3,1
6738634238,1,18,4,-17,-7,-8,-8,-4
6738641128,-1,6,4,13,-10,-1,-12,1
6738641128,4,18,10,-3,4,-1,-5,2
6738648597,1,-7,-10,19,7,-1,-6,-4
6738648597,7,9,6,7,15,12,0,0
6738657521,4,8,-13,-6,8,7,18,6
6738657521,-22,-5,-7,-3,-18,-11,-12,-11
6738671163,5,22,10,6,5,-12,-3,0
6738671163,2,10,12,4,12,34,-24,-1
6738680022,-4,6,4,5,-10,6,21,3
6738680022,-12,19,-10,-14,1,-7,-4,-4
6738694312,18,-4,15,20,11,9,18,-1
6738694312,6,-18,-26,-16,-3,-7,-10,4
6738701175,-19,-21,-5,-19,-11,-2,-9,-14
6738701175,-1,-4,15,-1,-6,-5,34,12
6738708636,4,-15,-10,-18,-14,-3,-28,-6
6738708636,0,-12,0,3,15,6,11,-3
6738717523,-3,-13,0,13,5,-5,-8,5
6738717523,-1,-10,-3,11,3,-6,0,-5
6738731163,-5,-18,-9,-26,-14,-9,-2,3
6738731163,7,10,9,0,-10,-6,-2,-3
6738739965,3,1,5,5,2,-2,-6,2
6738739965,-5,-6,0,-1,1,5,-9,-3
6738754364,-4,-2,-8,-3,2,5,8,6
6738754364,-5,-2,-5,-11,-5,-12,-6,-3
6738761132,-6,-3,-4,-1,0,1,2,-4
6738761132,8,3,3,0,0,-4,-7,-1
6738777511,-7,10,-5,2,1,9,5,-2
6738777511,1,-1,0,-4,-10,-13,7,-1
6738779019,7,3,-1,-9,-5,-3,-9,1
6738779019,0,12,3,20,9,9,-3,-3
6738791148,-4,-12,-12,-19,3,-2,4,-1
6738791148,1,3,3,4,5,-2,6,1
6738799993,-9,-5,2,0,-5,-4,-7,-4
6738799993,-3,2,0,0,12,3,-6,-3
6738814305,0,5,0,-1,-16,-8,12,0
6738814305,6,-2,-1,-4,-4,0,-4,-1
6738821061,7,3,-5,2,3,-1,2,3
6738821061,-10,-3,4,-9,-5,6,-16,-4
6738837458,-8,0,5,-1,3,-1,1,-1
6738837458,-4,-5,-5,1,-2,-33,-21,-9
6738839014,-6,-13,7,1,-5,17,4,-1
6738839014,-2,-17,-13,-13,-7,2,-8,-1
6738851210,2,-3,11,16,2,2,2,3
6738851210,13,15,-6,-4,3,6,5,7
6738859994,-5,-3,3,7,10,-8,-7,-5
6738859994,9,14,-4,-3,-5,0,12,4
6738874201,-10,-3,-17,-28,-15,-19,-16,-8
6738874201,-5,-5,5,-3,-2,5,4,1
6738881150,8,5,9,-3,-5,-10,5,2
6738881150,-10,-15,-5,-7,-6,12,-8,-6
6738897361,8,17,2,10,9,0,21,7
6738897361,-3,6,9,5,0,10,-3,-7
6738898966,2,0,-8,-2,3,-5,-22,2
6738898966,-6,-6,0,0,-5,0,14,-7
6738911153,-2,7,4,-1,3,-6,-7,-2
6738911153,0,-4,2,2,-3,5,1,2
6738920029,4,8,-9,-4,-6,-9,4,1
6738920029,4,11,-1,6,7,-18,0,3
6738934346,2,11,13,2,0,23,-2,-2
6738934346,-22,-18,-11,-10,-11,-2,-4,-10
6738941124,5,7,4,1,4,4,9,2
6738941124,11,13,3,6,5,-1,1,5
6738957482,4,0,-10,-2,0,-6,-2,-3
6738957482,1,-1,-1,-1,-4,-3,2,0
6738959019,-18,-6,-4,-10,-7,-6,-16,-7
6738959019,-2,-16,-5,0,0,1,16,-1
6738971189,9,-11,1,-4,0,-1,-8,5
6738971189,-10,-4,-7,-10,-9,2,-1,-4
6738979978,4,-2,-6,0,1,-7,9,1
6738979978,-10,-2,1,-1,-4,4,-6,-4
6738994327,-8,-15,-11,-6,-6,-18,-1,-7
6738994327,2,-10,-2,-1,3,14,6,4
6739001056,-1,-9,4,4,7,4,2,2
6739001056,3,-9,1,-2,-5,-13,-6,-1
6739017439,9,-2,2,-1,4,1,1,7
6739017439,-8,-3,-2,-2,-7,-5,-9,-6
6739018948,-1,-9,-3,-3,-2,-7,5,0
6739018948,-15,2,-1,1,0,1,4,-5
6739031151,18,3,-2,-1,-2,2,-9,4
6739031151,2,19,5,0,0,-5,13,3
6739040021,-9,-5,-3,2,4,10,-8,-10
6739040021,-22,-3,-2,-3,-7,-12,-1,-4
6739054855,-2,1,2,4,3,3,2,5
6739054855,4,-14,0,-6,-6,-11,-3,-5
6739061081,17,19,0,-2,1,6,4,5
6739061081,6,-37,-24,-9,-2,-5,-14,-4
6739077508,11,44,23,28,10,5,8,7
6739077508,-10,4,-8,-3,1,-3,-4,-1
6739078967,-22,-42,-22,-15,-9,-8,-3,-4
6739078967,40,85,36,10,1,11,-3,9
6739091171,-24,-46,-18,58,-5,-8,-15,-4
6739091171,12,-10,-2,-62,5,-8,-7,-7
6739099964,-24,-88,-10,29,10,10,13,1
6739099964,-7,-5,1,-4,9,6,6,2
6739114231,15,52,13,6,-5,-2,-8,-3
6739114231,8,53,17,23,-11,-3,2,0
6739121106,20,38,-10,-31,3,0,1,6
6739121106,-13,-48,-5,11,-3,1,-12,-5
6739137455,7,9,-5,-26,-4,-4,6,4
6739137455,0,29,0,17,-5,-2,-4,0
6739138946,-24,6,1,-21,-4,1,-5,-10
6739138946,13,11,-1,19,0,3,15,6
6739151075,0,4,-15,-25,8,9,-2,-7
6739151075,9,-6,0,10,-1,-3,-2,9
6739159964,5,56,0,9,2,1,-9,-3
6739159964,5,62,15,-4,-5,-5,0,1
6739174349,-29,-50,-11,-11,-11,-12,-5,-14
6739174349,9,-57,-6,-5,-2,-1,4,3
6739181131,-6,30,10,10,1,3,-15,-7
6739181131,-2,0,-7,-24,-9,-8,36,0
6739197408,-6,-32,-2,-18,7,4,-2,-4
6739197408,-3,-25,-11,4,9,8,4,4
6739199014,14,30,18,-3,-4,-3,14,2
6739199014,-13,-105,-19,11,1,-3,-23,-8
6739211083,-5,4,7,-15,-1,2,4,0
6739211083,-19,-22,-9,4,-3,-23,5,-3
6739219985,4,-1,-1,-5,-21,12,-7,0
6739219985,1,15,1,0,26,15,-1,1
6739234306,1,-6,-4,-4,-12,-7,0,-2
6739234306,-3,-3,1,10,5,-4,-17,-3
6739241110,19,1,-1,2,-7,-5,12,11
6739241110,-4,3,-8,-13,-8,-6,-5,-5
6739257457,-10,10,6,18,30,9,6,0
6739257457,-4,16,1,-1,-4,-1,5,-4
6739258998,1,-6,-4,-1,-2,-11,-14,-5
6739258998,-1,16,2,4,-2,10,26,1
6739271128,14,5,-7,-20,-27,-13,-4,2
6739271128,-5,16,9,4,-7,-7,-10,-2
6739279938,-20,-8,5,7,13,-3,-3,-4
6739279938,-3,-12,2,12,4,3,-2,-3
6739294326,-8,-9,-9,-24,-13,-3,-8,-4
6739294326,-6,2,0,18,1,0,4,-6
6739301133,27,27,-19,-13,3,-1,3,8
6739301133,1,29,7,-10,-14,-14,-18,-1
6739317433,-4,-10,-10,11,15,9,6,1
6739317433,-9,-4,14,-7,-11,-5,-8,-8
6739318993,-18,-29,-16,-6,0,-2,1,-7
6739318993,0,-1,-7,-8,2,-3,-4,2
6739340001,10,21,14,5,-7,-3,4,1
6739340001,-1,1,-7,-1,8,6,2,3
6739341434,-3,-7,7,8,-2,-9,-2,-3
6739341434,-5,-18,-1,-2,-8,1,-9,-1
6739354172,-12,-6,-3,-12,-9,-7,-7,-10
6739354172,1,-1,1,1,11,13,2,2
6739361130,3,-9,2,-4,-9,-3,0,5
6739361130,4,-3,1,5,8,2,11,0
6739377434,-15,11,10,1,-1,-3,-29,-1
6739377434,8,4,-14,-17,-11,-5,-8,0
6739378944,-7,-10,8,7,1,-5,-5,-2
6739378944,-7,-5,-8,-4,1,2,-1,-8
6739399962,3,-11,-2,0,0,6,-1,3
6739399962,0,-1,-2,4,4,0,7,1
6739401512,-20,-32,-3,-8,-5,-4,-4,-8
6739401512,-1,10,-2,-3,-4,-4,-10,-2
6739413686,-2,-6,-5,-1,0,-1,3,2
6739413686,15,7,-3,2,5,4,0,4
6739422464,8,17,5,2,1,-2,8,3
6739422464,3,8,0,-3,-3,0,-1,3
6739437455,-2,-22,-12,-2,-1,-4,4,-6
6739437455,-1,-8,-1,-3,-6,-6,-2,-1
6739438944,2,3,13,7,7,11,6,2
6739438944,-8,-27,-12,-9,-4,-1,1,-5
6739459987,8,4,-2,-2,0,-1,-17,6
6739459987,-14,-11,-9,-4,1,2,-18,-7
6739461486,4,-4,-3,-2,-2,-9,-1,-3
6739461486,9,8,0,4,3,14,-11,6
6739473608,-8,-7,0,4,3,1,7,-3
6739473608,7,9,9,0,-4,0,0,1
6739482492,-10,-13,-8,-3,1,2,-1,4
6739482492,15,6,-5,-1,-2,-8,-1,0
6739497479,-1,4,-1,1,-2,-2,9,-3
6739497479,-9,3,-1,-1,1,4,5,-1
6739498938,13,10,1,-1,-3,-5,12,-8
6739498938,-17,5,6,3,-1,0,12,9
6739519950,3,-15,-2,1,0,-5,5,-7
6739519950,-6,3,3,1,0,11,-5,5
6739521435,8,67,24,-1,-1,0,1,-2
6739521435,-2,-66,-28,-10,-15,-16,-13,-13
6739533512,-11,30,7,28,12,7,1,6
6739533512,5,-22,4,-11,-14,-8,-2,-4
6739542472,7,22,-33,-17,-5,2,-3,-1
6739542472,-5,52,72,80,3,-2,-5,-1
6739556817,11,78,-54,-109,-2,1,1,0
6739556817,-33,-76,-3,40,2,0,13,-14
6739563609,-8,-73,-74,-20,17,13,-6,-1
6739563609,-1,73,56,-25,-3,-2,4,0
