timestamp,emg1,emg2,emg3,emg4,emg5,emg6,emg7,emg8
7308111266,4,11,-1,-7,-8,-7,-15,3
7308111266,-2,1,6,5,1,-6,5,0
7308112230,-3,-14,-13,-18,-8,-6,-4,-3
7308112230,1,5,3,-6,-7,-10,-9,-2
7308112944,-3,-8,-6,1,8,8,8,-1
7308112944,-6,-8,0,-3,0,2,4,-2
7308115789,5,10,4,5,2,-1,5,0
7308115789,2,4,-3,0,-5,-7,-37,1
7308123626,8,-8,0,-4,-9,-5,6,-1
7308123626,3,5,3,2,-2,1,2,2
7308131551,-7,3,0,0,1,1,6,-8
7308131551,-16,-13,-3,-5,-1,-1,-29,-1
7308137875,-1,-4,-1,1,0,-7,-9,-1
7308137875,0,4,-5,-5,0,1,-9,-4
7308152911,3,-2,0,0,0,-2,-7,-2
7308152911,-3,-8,-3,-1,0,-21,16,-4
7308162345,-5,1,3,2,4,32,1,2
7308162345,5,-1,0,2,-3,-6,6,1
7308167846,8,-4,1,-1,-5,-11,-15,4
7308167846,-1,-3,-7,-5,-1,12,25,-1
7308184745,-4,5,2,-1,1,-5,1,0
7308184745,2,8,-4,-6,-4,-4,-7,-1
7308190343,-8,0,4,4,2,2,5,-2
7308190343,8,10,2,0,-4,-6,-23,-4
7308238503,-11,-19,-2,0,0,4,-1,-2
7308238503,-1,13,-1,-2,0,-5,0,-4
7308239385,13,-1,-1,-1,-3,-5,5,-1
7308239385,-8,-11,-3,-1,-1,-1,-7,-3
7308240155,-9,5,-2,-1,-2,-4,-6,-5
7308240155,7,3,-2,-2,-1,2,-3,-3
7308243305,2,-12,2,0,-2,-14,-4,2
7308243305,-6,2,0,-1,0,11,10,0
7308250201,12,7,-4,-1,-1,-9,-6,-4
7308250201,-13,-16,3,-7,-7,7,-5,-1
7308257720,13,-4,0,5,5,-11,-34,3
7308257720,-24,22,-3,-2,0,23,9,-5
7308266548,28,-38,-5,-5,-4,-5,2,4
7308266548,-5,40,27,9,3,2,-4,4
7308280848,-13,6,-21,-6,-3,2,-6,-11
7308280848,7,64,-6,-18,-13,-17,-10,1
7308287704,-24,-44,1,7,11,11,10,3
7308287704,-11,-5,-24,-7,-4,-6,-1,-7
7308295223,-4,10,-11,-5,12,10,11,1
7308295223,26,10,38,22,-13,-4,1,9
7308310159,13,1,-41,2,17,-1,-4,-9
7308310159,9,39,4,-17,-7,-7,0,9
7308317653,-61,-49,24,33,2,-3,-6,-14
7308317653,0,-15,-15,-3,0,-4,-1,-3
7308326557,23,11,9,15,5,8,9,10
7308326557,2,-37,-35,-30,-7,-3,-8,-3
7308340877,25,58,9,-9,-7,3,8,2
7308340877,-9,-33,11,3,-8,-11,-6,-6
7308347662,-24,18,7,4,-15,-13,-10,-9
7308347662,6,-6,10,7,14,10,15,3
7308355048,14,29,-10,-12,-8,-2,0,5
7308355048,-5,3,-2,-3,-1,-8,-8,-1
7308370211,-5,28,0,-24,-17,-12,-9,-4
7308370211,-4,-9,1,16,6,5,14,-9
7308377577,3,-17,0,-14,-5,2,-3,7
7308377577,4,-26,3,33,38,30,22,1
7308386541,17,2,7,-3,9,-28,-14,8
7308386541,-16,-19,-2,-21,-27,8,-24,0
7308400788,17,-19,9,26,16,14,21,3
7308400788,9,-2,-19,-28,-11,-2,0,-1
7308407683,-36,3,15,12,19,8,11,-1
7308407683,11,-20,9,29,6,-22,-9,-1
7308415102,-2,-6,-20,-52,-27,-10,-1,-2
7308415102,-1,-9,-5,-11,-2,0,-8,2
7308430114,3,0,0,-10,-2,-3,-8,-8
7308430114,-4,-6,1,1,-20,-13,-8,-3
7308437615,-8,-4,-11,-1,-1,5,1,1
7308437615,17,-1,3,14,9,-3,1,2
7308446591,-3,-5,2,-18,-16,-1,-3,-3
7308446591,-7,2,3,13,15,5,8,-2
7308460888,8,13,-6,6,-19,-9,-3,-2
7308460888,-1,-7,12,49,17,-5,-2,0
7308467664,-6,9,-8,-51,-2,8,2,-2
7308467664,1,-4,-6,0,-14,-7,-6,-4
7308475176,2,0,-15,-32,15,7,2,2
7308475176,-20,-21,-15,-10,-11,-6,-6,-7
7308490183,5,-8,22,32,9,11,5,2
7308490183,13,5,-4,3,7,4,9,5
7308497748,-16,-14,3,-10,-5,-7,-7,-9
7308497748,-2,3,6,7,-3,-4,-4,2
7308506518,5,-3,-11,-9,-15,0,0,2
7308506518,-3,7,15,2,2,-3,-1,-2
7308520912,4,-4,-8,6,5,3,-1,1
7308520912,-5,4,-10,-20,-12,-15,6,-1
7308527760,3,3,6,13,0,-8,-7,-1
7308527760,-8,-1,-7,-2,7,27,3,-3
7308535191,-4,-6,10,15,-1,-3,0,-1
7308535191,2,3,0,-11,-4,10,2,-4
7308550202,-9,7,-7,2,6,-1,-6,-3
7308550202,9,-1,4,6,6,-12,8,9
7308557696,3,0,8,9,2,-15,-7,-2
7308557696,-3,3,-12,-18,-4,20,-38,0
7308566540,-4,-3,-3,1,-13,11,11,-3
7308566540,3,-10,-9,-11,-7,-16,-18,-27
7308580857,-2,-5,6,11,12,8,-15,26
7308580857,-16,-8,-4,-8,-6,-16,9,-4
7308587673,12,-5,-3,3,-8,-3,-2,8
7308587673,-5,7,-1,2,3,-4,17,-2
7308595163,-22,-1,0,-1,-3,-6,9,-14
7308595163,5,-12,3,-2,-1,-2,0,-5
7308610178,-10,-8,-4,1,-1,-2,3,5
7308610178,8,-10,-7,-7,-3,-3,-2,3
7308617684,15,-3,3,3,-3,0,9,-1
7308617684,7,1,-3,-9,-1,-3,7,4
7308626583,11,5,0,3,0,2,11,-6
7308626583,3,16,2,-2,2,3,-7,1
7308640805,-18,0,0,3,-3,-8,2,-1
7308640805,-28,-11,4,1,-1,11,-4,-4
7308647588,6,21,2,-1,-5,-3,-7,-3
7308647588,-3,-16,-11,0,2,4,1,0
7308655157,10,64,13,5,3,7,6,4
7308655157,25,11,1,-12,-3,-9,2,5
7308670156,-13,-16,1,16,-5,-6,-9,-5
7308670156,-18,10,31,13,-4,3,3,-2
7308678407,15,-7,-46,-23,18,12,9,2
7308678407,-19,-1,-8,5,-9,-10,-9,-8
7308685157,16,7,13,-13,-3,10,4,4
7308685157,-4,-18,-37,-19,-5,-6,-7,-2
7308709060,-23,-43,12,15,11,-1,-5,-13
7308709060,3,8,-19,-18,-3,-6,0,11
7308710517,10,8,13,-6,-15,-8,-7,-5
7308710517,-3,-17,-16,17,17,3,0,2
7308715200,1,14,24,5,-8,-1,-6,-1
7308715200,-9,-22,5,3,6,2,6,-1
7308730166,-7,3,-2,3,3,2,1,0
7308730166,8,49,26,-3,-7,0,1,7
7308738393,-3,-20,-8,5,-8,-3,-9,-12
7308738393,23,11,4,4,-3,-7,0,5
7308745168,-4,13,-24,-13,7,6,-2,-2
7308745168,-5,-11,-3,-1,-1,-3,0,-2
7308760878,-3,-5,-2,5,-8,0,-4,6
7308760878,-12,-2,3,11,9,-7,0,-9
7308767578,-7,0,7,7,5,16,-11,-6
7308767578,10,4,-9,-14,-9,-2,9,10
7308783404,6,-11,-2,-9,-1,-20,-2,-4
7308783404,-31,-2,-4,-10,-22,2,-14,-10
7308790087,-9,-17,-3,4,12,8,23,3
7308790087,4,-9,4,5,-1,0,-15,-2
7308798365,7,3,7,0,-29,15,7,2
7308798365,22,-2,-5,-4,10,-8,2,3
7308805069,-14,-2,0,21,9,-6,1,-3
7308805069,-11,-2,2,-13,-3,-2,-13,-5
7308820857,-4,-6,-2,-6,-8,-11,-8,-1
7308820857,7,7,-4,7,-9,-5,-5,0
7308827660,2,-2,-5,-18,-8,3,3,1
7308827660,-3,-7,6,23,18,2,4,-1
7308843272,8,2,1,21,8,2,0,-1
7308843272,-1,3,-19,-40,2,-1,-2,-4
7308850208,1,3,-2,2,-7,-12,-15,-4
7308850208,-5,1,6,-6,-14,-5,0,-5
7308858353,-1,10,8,-12,5,6,3,-1
7308858353,-9,-6,8,4,-6,-3,-1,-4
7308865145,-3,-4,19,6,8,4,-2,-1
7308865145,7,-4,-22,-22,-3,-9,-4,1
7308880793,-10,6,3,-1,-8,-3,-8,-5
7308880793,5,-5,8,0,3,1,-1,1
7308887643,-1,3,-13,-7,2,-10,-3,-3
7308887643,-6,-10,16,14,-8,5,-1,0
7308903346,-1,13,-10,-24,5,-2,-1,-2
7308903346,-3,-10,-3,3,2,-7,5,-2
7308910174,5,-2,-12,-5,-6,4,2,3
7308910174,-6,5,-4,6,6,-6,3,0
7308917673,-6,-11,6,0,-3,3,0,-2
7308917673,5,10,-5,-2,-7,-8,-4,-1
7308926518,5,9,7,11,4,6,-4,5
7308926518,12,19,-2,-9,4,-4,12,6
7308940741,-7,-12,-9,3,-2,4,-1,-3
7308940741,7,13,3,9,2,7,-12,2
7308947664,-6,4,1,-3,6,-10,13,-7
7308947664,2,-16,-6,7,5,13,-5,7
7308963325,11,-7,-1,-2,1,-20,-10,-5
7308963325,-4,-8,-2,1,3,14,0,2
7308970158,1,-6,-4,-5,-6,-12,11,11
7308970158,7,5,1,-4,-2,14,14,-4
7308977680,-4,-11,-4,1,2,-3,-38,23
7308977680,-15,-28,-2,-4,0,3,19,-28
7308986493,1,-25,-2,0,-9,-5,-30,2
7308986493,-41,-12,-1,-3,-3,-11,-11,-15
7309000833,8,-3,-3,-2,2,6,16,5
7309000833,8,1,4,8,2,-3,3,11
7309015127,16,-4,-3,-6,-4,1,-2,-1
7309015127,8,10,4,-1,-1,3,-11,2
7309023281,-6,-8,-5,-2,-1,0,8,-11
7309023281,2,-6,-2,0,-1,-9,-10,0
7309030040,-10,2,0,-1,-2,1,1,-8
7309030040,16,-9,-9,-10,-9,-11,-5,-1
7309037654,-14,8,2,7,1,4,3,-5
7309037654,5,4,1,-3,2,2,1,1
7309046559,6,8,1,-3,-4,-5,-3,2
7309046559,-14,-10,-15,-10,-1,12,4,4
7309060755,11,8,7,11,0,0,2,-3
7309060755,14,7,16,16,-1,-4,-2,4
7309067538,-28,4,-9,-22,-7,6,9,3
7309067538,-5,0,19,41,6,-3,-7,-8
7309083299,-14,0,-64,-48,-2,-2,-3,-11
7309083299,18,80,40,19,7,6,9,3
7309090012,-1,-91,-19,-31,-4,-9,-6,-3
7309090012,3,76,23,35,5,0,1,1
7309105845,19,-16,21,-2,-11,-1,5,3
7309105845,16,30,-7,-27,-7,-2,5,15
7309106501,-4,-39,-18,45,10,2,-8,1
7309106501,-20,-36,20,-31,-11,-9,-10,-16
7309121531,-12,32,-5,2,-8,-9,9,-10
7309121531,-14,-46,-11,-5,1,5,-21,-4
7309127562,11,-44,6,31,2,4,9,6
7309127562,31,35,-42,-36,-8,-6,0,9
7309144039,-5,22,27,16,-1,-1,0,-3
7309144039,-25,-12,-21,-10,-4,0,4,-6
7309150129,10,29,-4,-18,0,1,1,0
7309150129,2,-7,7,25,20,5,1,-1
7309165087,4,-2,5,-1,-11,-8,-5,1
7309165087,-2,14,-5,-2,4,3,8,6
7309172713,-6,19,14,19,23,1,-1,-6
7309172713,17,5,0,-8,-7,13,4,3
7309181554,-19,-4,8,-4,13,-17,-3,-3
7309181554,-12,-44,-10,6,-25,13,-5,-8
7309187583,-5,34,-2,-20,-14,-27,-10,-6
7309187583,-9,-33,1,-9,-18,14,6,2
7309204024,20,-14,-13,3,27,5,8,9
7309204024,-12,0,11,40,15,-11,-12,-1
7309210165,0,5,-8,-19,7,3,-1,-3
7309210165,-4,-13,-6,-17,-15,-10,-8,-1
7309225157,-3,-17,8,-1,-13,4,14,-6
7309225157,15,-2,9,20,3,-8,-19,2
7309232602,-8,20,-19,-30,-7,9,-12,-7
7309232602,-14,-39,-15,1,4,-13,5,-2
7309248251,-4,6,1,-2,-3,11,3,-2
7309248251,15,3,6,25,-7,-6,5,1
7309249075,-3,6,3,6,15,2,4,-3
7309249075,7,14,3,7,8,5,12,5
7309264061,3,4,-15,-29,0,11,-9,2
7309264061,-11,-4,-3,-16,0,-2,4,-6
7309270155,-1,5,-1,-24,-35,-5,-4,-1
7309270155,14,24,-23,39,16,-11,-3,3
7309293319,-3,-5,3,12,-7,-4,-7,-2
7309293319,-10,-1,12,-6,-10,-4,2,-6
7309293995,-2,0,4,-16,-10,-4,1,-2
7309293995,-3,-12,-15,6,13,4,-6,0
7309308350,0,-8,2,-6,-11,-3,-2,-2
7309308350,7,4,1,42,5,0,4,0
7309309029,-4,3,-18,-57,-11,-1,0,0
7309309029,-2,-1,16,-24,-7,-9,-2,-1
7309324035,-5,-17,-2,-11,9,5,-1,-1
7309324035,-1,-5,-8,8,-1,4,5,1
7309330097,4,7,3,35,14,5,4,2
7309330097,-5,-18,0,-4,-9,-13,-8,-3
7309345138,-3,0,-1,-7,-12,0,-1,3
7309345138,-6,-2,-11,-26,11,6,6,-3
7309352655,6,12,19,27,3,0,5,1
7309352655,-9,-10,-6,-21,-7,13,-8,-8
7309368318,0,8,12,21,-2,-12,-12,-3
7309368318,-4,-2,-14,-28,-9,-16,-3,-2
7309369032,2,2,6,9,-5,12,-20,-2
7309369032,4,6,6,13,15,16,25,6
7309384012,-4,3,-2,6,4,-2,-16,-23
7309384012,-9,-16,-7,-21,0,6,-5,20
7309390226,0,-7,1,4,-8,-18,-2,-4
7309390226,-5,1,7,-7,-10,-24,-18,0
7309405109,2,-4,-2,4,1,29,2,1
7309405109,5,-5,-5,-16,5,-6,1,-5
7309412715,-7,-6,1,11,0,2,3,-3
7309412715,6,-6,4,-1,-3,-4,6,-3
7309428280,-6,-12,-7,3,6,-8,-4,1
7309428280,27,8,-1,-7,0,4,20,3
7309428985,-23,12,4,3,-2,3,-8,-1
7309428985,-4,-26,-9,-7,-2,-5,6,-7
7309444003,-3,-4,-2,2,-2,-4,1,5
7309444003,1,20,3,-9,-2,3,-12,-6
7309450159,1,-9,1,1,-6,-7,6,0
7309450159,7,13,8,7,8,-3,-3,-6
7309465130,1,-1,-2,-1,-3,-1,3,11
7309465130,-9,-4,-4,22,1,0,-5,-3
7309472641,0,5,-3,-6,13,4,5,-1
7309472641,-19,-25,-8,-3,-10,-6,-9,-3
7309488311,15,-15,-5,-24,-15,-2,3,4
7309488311,-18,39,17,26,22,-2,-2,-8
7309488991,13,22,-4,-20,-9,-4,4,6
7309488991,7,-12,-9,-1,-6,2,-6,-3
7309503997,9,25,30,3,13,7,10,3
7309503997,-15,-8,-10,2,0,3,4,-4
7309510163,-20,-13,12,9,-9,-5,-7,-9
7309510163,2,-5,-3,2,-1,3,-1,4
7309525130,16,5,-12,-4,0,-4,0,1
7309525130,-14,-68,-2,-6,-7,-3,-2,0
7309532653,14,14,6,5,8,6,6,3
7309532653,-5,20,10,12,-8,-2,-2,2
7309548307,-3,7,6,3,5,-2,0,-5
7309548307,9,1,-12,-26,-1,6,5,3
7309548994,-6,-41,-12,19,4,-2,0,4
7309548994,2,31,8,-5,0,1,-1,-1
7309564004,-1,36,-10,2,-6,-7,-11,-4
7309564004,5,-12,-10,-19,-9,-6,0,-3
7309570138,-5,-12,7,5,1,4,7,-1
7309570138,-4,21,2,4,-4,-8,-9,-3
7309585112,-16,-19,-1,-6,0,9,4,-5
7309585112,-10,2,-6,-6,2,-15,-9,-1
7309592644,4,11,-4,-2,-3,9,5,-4
7309592644,-20,-23,-2,-17,3,2,13,4
7309608314,13,-8,-7,41,8,19,-15,0
7309608314,2,2,0,-21,16,-7,4,1
7309609021,8,9,2,16,-12,-4,-6,-3
7309609021,8,5,0,-16,-11,-20,4,0
7309624029,-15,-17,1,0,4,14,6,-4
7309624029,6,9,-1,-16,-14,0,-1,1
7309630163,1,-2,-2,19,12,-13,-15,-4
7309630163,-1,-3,-15,-10,-20,12,-11,-3
7309645162,-6,-9,3,14,3,-22,10,4
7309645162,2,-7,-11,-22,-8,-6,-3,-4
7309652658,1,2,7,11,-1,4,-10,-2
7309652658,-15,-23,-8,-2,24,12,11,-2
7309668243,8,-6,-2,-8,-8,-13,-5,-1
7309668243,-3,-5,-12,7,14,6,-2,2
7309668976,-13,-11,-7,-35,-49,-13,-8,-10
7309668976,8,5,1,50,41,17,7,-1
7309690761,-1,3,-12,-15,8,2,21,4
7309690761,2,13,27,-4,-32,-13,2,-3
7309691579,-2,-5,-13,11,62,6,-3,2
7309691579,25,43,-34,-39,-25,-15,-8,1
7309705104,-11,2,52,59,-4,-8,-4,-3
7309705104,4,2,-26,-2,-18,-4,-3,-3
7309712544,9,4,-13,-36,8,2,8,-2
7309712544,0,9,20,43,12,4,-5,5
7309728283,-3,9,-1,-10,2,-4,-7,-4
7309728283,-7,6,13,-22,-22,-3,-11,-5
7309728965,12,15,19,26,-3,12,8,6
7309728965,-12,-24,-1,-24,-2,-6,-5,-6
7309750754,-2,-5,-18,-21,-9,-9,-6,1
7309750754,-9,0,15,18,10,4,2,-2
7309751505,-3,0,-9,-19,-7,3,-7,-1
7309751505,4,2,17,7,-8,-8,15,5
7309765023,-4,6,-14,-11,-1,18,-7,-1
7309765023,-1,2,-11,3,8,-12,3,-7
7309772607,4,-10,-11,-10,-5,16,12,9
7309772607,5,-13,3,-11,-4,-5,-1,4
7309788288,0,-11,-2,-1,-6,7,2,-12
7309788288,-8,-29,3,7,11,15,12,-5
7309788970,-10,-37,1,5,-5,-14,11,27
7309788970,-10,-21,-3,-8,-9,-14,-21,-11
7309804017,6,1,-4,-9,2,7,23,9
7309804017,17,16,6,14,8,0,-3,1
7309810099,-9,4,-3,3,-2,-9,-3,-11
7309810099,-1,11,0,-7,-6,19,2,0
7309825023,-10,7,-4,-4,3,-14,-9,-2
7309825023,-4,3,-6,1,1,2,-8,-2
7309832596,2,-1,1,0,-7,2,-12,-2
7309832596,1,-12,-3,-9,-1,-7,2,0
7309848294,-5,11,3,2,-3,-13,-14,-4
7309848294,-4,-16,-9,-27,-13,5,-4,1
7309848995,4,7,9,50,11,-6,5,-3
7309848995,-5,3,-3,-17,-7,-2,-9,-2
7309870807,17,11,-1,-1,-3,5,3,4
7309870807,-3,1,-23,3,18,8,2,2
7309871463,-4,15,13,-1,-2,-7,-5,-9
7309871463,-7,0,5,0,-1,0,-1,0
7309885153,-10,5,6,19,-5,-3,-7,-2
7309885153,13,1,-8,-11,-11,-10,-3,0
7309892612,-5,19,7,19,3,2,0,-3
7309892612,-1,-15,-23,-23,2,11,3,2
7309908285,6,-47,-6,-8,-7,-9,-1,-2
7309908285,3,18,21,21,7,0,-2,1
7309908961,-10,32,8,-19,-12,-9,-7,-3
7309908961,-6,27,8,9,-2,-2,-2,-7
7309930658,-9,-40,-18,-19,-3,-7,-3,1
7309930658,27,25,6,12,2,3,1,3
7309931523,-10,-20,-11,-29,-6,7,-1,-1
7309931523,3,16,17,45,13,1,-1,3
7309945065,2,2,-18,-23,-7,-9,-11,-8
7309945065,-25,-22,1,12,2,5,-1,2
7309952606,15,19,-7,-8,13,9,6,-1
7309952606,3,37,12,5,-7,2,2,2
7309968249,2,-3,-9,-8,-8,1,2,1
7309968249,-6,-2,12,7,-3,-18,-2,-4
7309968943,8,14,-7,-21,-3,10,1,5
7309968943,-12,-30,-5,0,-10,-19,-11,-8
7309983939,6,8,-2,-12,-3,9,0,-1
7309983939,4,-12,-1,6,0,-4,1,0
7309990149,-26,-24,-6,-14,-8,-2,-5,-3
7309990149,4,-8,0,2,-9,-1,3,2
7310004979,-6,0,2,-6,-7,-10,-7,-5
7310004979,12,-4,0,-7,2,-4,1,6
7310012420,3,1,-3,6,8,-10,-1,-1
7310012420,16,-19,2,18,-5,14,2,1
7310028117,-13,7,-7,-10,3,0,1,2
7310028117,-9,-5,-4,-5,-1,3,-2,-7
7310028917,-3,-22,-4,-16,-13,-15,-8,-5
7310028917,-4,-8,3,2,31,3,10,0
7310043982,8,-2,16,49,2,6,-2,3
7310043982,-2,18,-6,-25,3,3,-1,2
7310049924,-4,-3,-1,-14,-15,-1,1,-4
7310049924,1,-12,-24,-34,-30,-6,-10,-6
7310064935,4,13,4,25,31,-4,0,0
7310064935,-15,-16,13,15,3,2,-1,-7
7310072444,7,-7,-6,-6,-20,20,-1,-1
7310072444,-8,-9,4,-4,-1,-1,7,-2
7310095786,-2,0,-20,-44,0,-10,0,1
7310095786,-5,-9,3,22,-4,3,-1,-1
7310096380,5,1,1,4,-5,-3,2,-2
7310096380,2,6,-5,22,33,-2,-7,0
7310103970,-8,-8,-15,-32,-30,-6,1,-2
7310103970,10,4,27,80,11,3,-2,-1
7310109979,7,6,-44,-53,-1,-9,0,4
7310109979,4,8,5,1,6,4,3,1
7310124942,-8,-11,14,11,6,-8,-7,-5
7310124942,-7,0,-8,-25,-5,17,7,-4
7310132445,-4,-9,11,5,-7,-17,-14,-7
7310132445,0,0,-6,29,9,3,6,4
7310147489,-2,1,2,0,-3,5,-8,-1
7310147489,3,13,-13,-12,-1,-6,-7,-1
7310154949,-2,-12,4,9,5,7,-1,-2
7310154949,-4,-4,-6,-25,-12,-2,-1,-5
7310163992,3,9,13,21,7,0,3,4
7310163992,1,5,-13,-19,-8,2,-16,0
7310169961,6,13,7,13,0,-34,10,-7
7310169961,1,9,4,-4,3,24,-14,7
7310184995,-16,1,3,8,1,-2,2,-2
7310184995,-7,-17,-3,-21,-6,4,-7,2
7310192462,8,-14,1,14,8,-12,20,3
7310192462,-5,-5,2,-10,-8,-15,-55,-3
7310207433,19,-11,-5,-9,-8,0,15,-6
7310207433,-6,-14,-3,-6,5,-12,10,-1
7310214929,-22,-34,5,16,5,27,-22,0
7310214929,-4,2,3,-8,-8,-9,12,-5
7310230617,-8,0,1,-1,2,8,-5,0
7310230617,9,10,-6,-5,-5,-6,4,-6
7310231416,6,9,2,11,3,-11,0,6
7310231416,2,-8,1,-13,-7,20,13,-3
7310244946,7,-2,-6,-1,-2,-3,0,1
7310244946,8,7,3,-1,-2,1,-3,1
7310252458,-4,4,3,5,2,-3,0,1
7310252458,-10,-7,0,-19,-18,-16,1,-1
7310267503,-4,9,13,36,21,14,6,0
7310267503,-14,-3,-5,10,10,2,0,-4
7310275094,-3,5,-2,12,-4,8,-2,-1
7310275094,12,6,-6,9,2,-11,5,3
7310290744,17,7,22,3,-20,-8,-7,2
7310290744,-9,-6,-38,-32,-2,-3,-3,-4
7310291566,3,10,3,-15,-7,-2,2,2
7310291566,-16,7,6,12,11,0,4,-3
7310305057,-15,28,-5,-25,-11,-4,0,-4
7310305057,2,-56,-1,9,2,4,4,0
7310312587,6,0,0,-14,-1,4,-7,4
7310312587,20,-67,-6,4,-5,-5,-3,-4
7310327451,-8,27,-1,-13,-1,5,-1,5
7310327451,5,46,14,-13,-1,-4,1,-1
7310334981,-25,-24,1,20,3,2,-4,-11
7310334981,4,10,0,2,13,8,10,8
7310350689,18,1,6,5,3,-3,0,5
7310350689,1,-12,-12,10,-10,-5,-2,-1
7310351490,-8,31,7,-11,-4,0,3,-1
7310351490,16,15,-7,1,9,0,-1,-6
7310364983,-5,5,-26,-39,-12,-15,-11,2
7310364983,-11,6,13,19,-1,10,-8,0
7310372568,10,5,-9,-6,-1,-5,-1,-3
7310372568,-22,-5,-2,-8,-6,7,-2,-7
7310387521,9,-18,-4,8,-9,-17,2,-8
7310387521,2,-5,7,-12,-1,18,4,4
7310394990,-11,-29,-5,7,7,0,-4,0
7310394990,11,11,8,8,6,13,16,6
7310410755,-16,-13,-8,7,2,-12,5,-4
7310410755,-10,2,0,-19,-30,-10,-4,-5
7310411538,17,1,1,6,17,-10,0,-3
7310411538,-8,4,-13,-17,-14,-19,-14,-4
7310425041,-5,-9,3,4,-6,5,0,-3
7310425041,4,2,3,8,15,-8,5,1
7310432544,-4,-20,-2,-5,-5,9,1,2
7310432544,-11,4,1,-7,9,1,10,-4
7310447524,14,-2,2,7,-7,7,-4,7
7310447524,-7,-16,-13,-15,11,-7,-11,-4
7310455048,-1,6,4,-4,-37,9,-7,-7
7310455048,2,15,-20,4,8,-13,-8,-2
7310470739,-9,-14,0,10,16,-3,-2,-4
7310470739,-7,-11,-1,11,-5,3,4,0
7310471516,8,12,-5,-35,-9,-9,1,1
7310471516,-11,-12,21,37,-13,-4,-8,-7
7310485018,-11,-14,-16,-28,28,15,1,-5
7310485018,17,26,8,-52,-6,-23,-7,-2
7310492561,-2,-2,21,43,18,10,6,4
7310492561,-10,-18,13,-7,-15,-2,2,-1
7310507665,-3,-2,-26,1,4,-2,-6,-6
7310507665,12,5,-7,-23,-3,3,3,4
7310515116,4,34,-11,-25,-10,-8,-4,-2
7310515116,-12,-18,11,-4,-6,0,-3,-5
7310530621,-5,1,10,-15,-6,4,1,2
7310530621,5,6,5,20,8,4,-1,0
7310531491,-4,-4,-9,5,1,3,2,0
7310531491,9,25,-6,-5,-3,-12,-4,4
7310545065,-8,-9,-6,1,-10,-18,-17,-9
7310545065,-5,-4,0,10,-5,8,14,0
7310552527,1,-2,2,8,10,-2,3,0
7310552527,1,7,-10,-11,-10,-4,-4,-7
7310567581,-3,3,2,1,5,22,-22,2
7310567581,3,18,0,13,-2,-14,54,-7
7310575016,9,6,-4,2,-5,-10,-21,41
7310575016,3,-5,-1,-15,1,-10,12,-27
7310590742,8,-6,-3,11,1,-10,-48,25
7310590742,-11,-29,5,8,-2,19,-19,8
7310591503,-3,-33,-4,-3,6,11,5,7
7310591503,-3,-10,-11,-11,-5,-26,35,-47
7310605118,-2,-17,5,6,1,20,-77,33
7310605118,17,16,3,6,-4,6,70,44
7310612608,-20,2,-7,-3,-1,-4,-43,-23
7310612608,9,-9,-1,1,2,12,5,26
7310627541,-3,-13,3,1,-13,-28,31,-39
7310627541,-50,-25,-7,-4,-4,-15,-71,-19
7310635118,21,-5,-5,-2,-2,0,-4,5
7310635118,-28,-4,-1,-1,1,12,0,-6
7310650776,28,10,6,0,-1,3,15,1
7310650776,6,12,-3,-1,-2,-4,-19,-12
7310651412,-7,12,2,1,0,1,26,-12
7310651412,14,16,-2,-4,-3,-4,-26,6
7310681454,9,30,10,8,-2,9,21,7
7310681454,14,-11,-8,-10,9,6,-4,4
7310682101,-58,-21,13,25,2,-9,2,-21
7310682101,-19,58,-5,-4,6,14,-11,12
7310687611,38,20,-5,-11,-2,3,21,4
7310687611,-6,-26,-19,-17,-2,-9,3,-17
7310695101,15,35,-3,10,-18,-12,18,-1
7310695101,-14,-42,41,27,7,1,-29,7
7310710767,-4,-24,-33,-22,-3,2,27,-6
7310710767,22,-9,-5,-14,5,-3,-9,1
7310711481,-12,-27,8,3,2,0,7,-7
7310711481,16,50,23,49,-14,3,5,7
7310725078,18,108,-13,-21,13,-4,6,-5
7310725078,-31,-65,-5,19,-9,-8,-15,-5
7310732579,17,-46,-1,-34,-2,9,27,14
7310732579,-8,40,-16,13,-12,-3,-22,-5
7310747586,-11,-26,57,22,12,3,-5,-18
7310747586,14,45,-41,-13,0,-1,-4,1
7310755084,-4,33,-1,25,-7,-3,22,-2
7310755084,-2,-32,-14,-9,19,1,-17,4
7310770784,3,-13,-18,-11,-18,-10,-11,2
7310770784,-8,30,23,14,-8,-8,12,-7
7310771441,2,-17,-11,-7,0,-4,-24,-4
7310771441,19,-9,-2,-13,13,13,5,16
7310793230,-19,-43,-14,-1,1,-26,21,-9
7310793230,10,27,22,18,-10,46,6,1
7310793956,12,17,5,-1,27,-14,-13,-5
7310793956,-10,-25,-19,-15,-5,15,-12,9
7310807501,-23,-13,9,39,9,-3,6,-7
7310807501,19,-4,5,-38,-6,-30,-17,-11
7310815101,-1,-6,-11,-26,2,7,59,14
7310815101,-16,-22,-6,-13,-30,-7,-1,-7
7310830800,-9,-13,6,31,-18,2,6,-5
7310830800,-2,-1,-3,-13,58,4,-7,-1
7310831465,2,-14,-7,-21,-29,8,-31,-11
7310831465,-3,-23,-12,-47,-23,-9,8,-3
7310853255,-18,-11,-5,-34,-12,-3,4,-8
7310853255,-1,2,4,41,-4,-8,-6,1
7310853945,3,6,-3,-6,-2,-6,-13,-5
7310853945,-3,-17,10,22,10,3,23,1
7310867636,1,9,2,-27,10,1,-4,0
7310867636,-8,6,17,7,-4,-5,-6,0
7310875766,-8,-10,-4,5,16,8,-4,-3
7310875766,10,-7,5,58,-8,-2,6,0
7310890739,1,0,-20,-38,8,2,-5,1
7310890739,-20,-36,-2,18,-12,-7,-1,-3
7310891466,9,9,-7,-18,-2,3,-3,1
7310891466,9,14,2,-2,-3,-9,-2,1
7310913229,-14,-15,9,45,27,8,8,3
7310913229,-5,-6,-22,-22,-17,12,5,-3
7310913971,7,8,8,34,6,4,-7,-2
7310913971,-6,2,-8,-30,2,-12,-8,-3
7310927588,2,1,5,-16,-13,4,5,4
7310927588,8,6,-15,-30,-8,-2,1,2
7310935717,-3,-1,2,24,2,-3,-7,-4
7310935717,9,14,0,-20,4,-5,-4,0
7310950733,-8,0,7,5,-12,-4,1,0
7310950733,0,12,16,22,5,-7,0,1
7310951456,4,6,1,-17,-5,-11,1,-3
7310951456,4,-5,-2,0,12,17,22,3
7310973292,5,-1,-7,-1,-10,10,4,-2
7310973292,-4,5,4,1,-5,-27,-38,-7
7310973902,-1,1,-1,7,2,-8,25,-20
7310973902,1,-2,-9,-18,3,30,8,35
7310987578,-22,-10,1,14,3,7,10,0
7310987578,11,5,3,6,-1,-19,-9,-11
7310995714,-12,0,2,-8,-8,5,-4,5
7310995714,5,1,-1,0,3,-8,1,-16
7311010113,2,0,3,7,11,11,-20,2
7311010113,1,10,3,6,2,17,12,4
7311018315,7,-4,-9,-9,-7,-14,-34,-2
7311018315,3,-1,-1,-7,-3,-12,3,-5
7311033218,1,-2,-6,-3,-13,-7,-6,4
7311033218,-11,-8,-2,2,0,2,12,-2
7311033945,2,1,7,2,0,-10,-8,2
7311033945,0,-4,-5,-4,2,13,0,-4
7311047559,9,3,8,-7,-7,-6,12,-3
7311047559,9,-4,-11,-5,-4,2,-8,3
7311055809,-19,-1,12,23,6,5,-1,-1
7311055809,-1,0,1,2,11,-8,-5,-8
7311070064,-7,-4,-15,-18,-17,-9,-8,1
7311070064,-10,-4,8,-1,3,6,6,0
7311078284,-6,-9,-9,-6,1,8,-3,2
7311078284,10,11,12,-6,-10,-10,-1,-6
7311093221,-3,6,4,32,8,1,0,-1
7311093221,-2,-6,-8,13,3,1,1,1
7311093942,2,17,11,-1,-6,0,4,-2
7311093942,-4,-7,-1,-2,4,-5,-12,-1
7311107553,5,-6,8,-21,-12,-1,21,6
7311107553,-1,4,-4,11,-1,4,-3,1
7311115815,5,-1,-2,-5,0,-1,-11,-3
7311115815,-5,4,-24,-36,-3,1,6,0
7311129995,-13,2,-6,1,5,0,-10,-6
7311129995,8,7,11,-2,-11,-11,1,0
7311138286,14,-9,-7,2,3,7,3,4
7311138286,-23,21,3,6,-7,-6,1,-2
7311145083,-8,-6,4,13,11,-1,0,-3
7311145083,-12,5,11,-23,-5,-2,-1,-2
7311152530,10,4,-21,-26,-8,-9,-17,1
7311152530,15,-7,1,16,-3,8,-7,1
7311167556,-3,-7,-16,-12,-2,7,2,-3
7311167556,-12,-5,1,2,-7,-12,11,-10
7311175768,10,6,13,5,16,23,4,7
7311175768,-1,-12,-1,10,10,-7,2,1
7311190061,5,-1,-6,0,3,-16,-11,-3
7311190061,-5,-7,4,8,-21,5,5,6
7311198278,-3,-1,-4,-11,4,2,-3,-9
7311198278,-10,0,0,7,-4,2,4,3
7311213155,6,-4,4,2,-1,-20,-11,0
7311213155,4,2,-8,-15,-9,-9,-8,1
7311214012,-8,-7,-3,12,-6,5,1,-3
7311214012,5,1,-12,-20,3,-15,-9,-9
7311227584,0,5,-5,-14,3,2,1,2
7311227584,1,-2,-12,-1,3,7,-24,-5
7311235764,0,15,18,36,23,24,41,12
7311235764,-9,-8,6,-16,-4,-9,-2,-11
7311250080,-1,7,3,40,1,-12,-46,3
7311250080,10,-1,-15,-16,-8,-14,2,-1
7311258265,17,-1,-6,-18,11,8,-1,6
7311258265,8,32,-3,28,-14,-26,-1,-1
7311273207,-9,-18,16,-26,2,14,3,-3
7311273207,-4,-8,2,57,26,12,1,-2
7311273947,5,24,-11,-36,-11,-15,2,8
7311273947,-4,-6,-23,-10,-23,-26,-7,-12
7311287565,-9,-22,-23,-32,-6,4,-4,-4
7311287565,11,10,15,-7,-2,-10,-12,2
7311295760,-10,-1,-13,-18,-20,-16,-6,-8
7311295760,7,-15,-16,-18,16,17,-27,9
7311310054,4,-4,-4,3,-25,-11,0,-5
7311310054,3,8,19,22,21,23,25,8
7311318277,-9,-16,-7,19,3,-9,-9,-6
7311318277,6,21,18,7,-21,0,-19,-2
7311333204,2,9,13,28,24,19,19,1
7311333204,-17,6,-16,-50,-12,-11,-2,-9
7311333940,-4,-7,6,21,-5,-2,-14,-2
7311333940,-16,-15,6,6,9,-13,-3,-1
7311347520,8,19,-8,-6,-3,14,34,4
7311347520,7,-13,0,9,7,-27,0,6
7311355757,-17,-10,3,-23,-13,46,-10,-1
7311355757,-5,-43,-3,7,8,6,13,-4
7311369993,15,1,-1,5,2,13,-18,-3
7311369993,-33,-31,1,-10,-7,-8,-8,6
7311378266,-8,-43,-11,5,-4,-39,15,-23
7311378266,-7,4,17,-2,12,21,38,18
7311393263,-1,-2,6,6,-5,-29,2,-11
7311393263,19,6,-9,-2,6,51,34,8
7311393948,-5,8,2,-2,-5,-6,-12,2
7311393948,3,18,-3,-1,-2,-8,-6,0
7311407510,3,-1,1,-9,-4,-21,-3,-1
7311407510,-2,-7,-14,-6,-4,0,-2,-7
7311415761,-14,-24,-13,2,-2,-18,-16,-5
7311415761,-5,-4,-6,-13,-6,5,11,-7
7311430079,-8,-52,-13,4,2,11,-9,4
7311430079,7,15,9,12,-1,3,-4,2
7311438238,7,13,9,10,17,18,9,2
7311438238,3,5,-10,3,2,-9,-11,3
7311453281,-1,38,5,-13,-15,0,15,2
7311453281,-4,6,-5,28,2,-4,-9,-8
7311453932,12,-21,-11,-20,-5,-21,-4,3
7311453932,-4,-9,-4,-8,-5,7,8,-2
7311467522,6,18,14,11,-4,-3,-5,0
7311467522,-17,1,-13,-25,-9,-4,-3,-6
7311475476,-3,6,9,7,-11,-4,-9,-3
7311475476,11,23,3,8,9,10,-3,-1
7311490039,4,-5,-13,-26,-3,5,2,-1
7311490039,3,20,13,1,-2,-10,-11,0
7311498235,0,21,8,3,-3,0,7,-3
7311498235,-7,0,-8,-22,-14,-3,-4,-4
7311513680,-3,-15,-14,14,11,0,5,1
7311513680,8,19,-7,4,8,3,2,-1
7311514398,24,25,-6,-14,1,1,3,9
7311514398,-21,-34,6,23,4,3,-4,-10
7311527577,-13,-10,-1,-18,-7,-6,-6,-2
7311527577,3,2,4,-12,-14,-6,-3,3
7311535731,-4,20,10,6,-10,-2,-1,2
7311535731,16,6,-19,-18,4,-5,0,-1
7311550099,-3,-10,-3,9,10,31,5,-2
7311550099,1,-3,7,3,-3,-4,1,-3
7311558233,-1,-25,-13,-13,2,-1,-4,-2
7311558233,14,12,8,8,0,7,8,5
7311573221,-9,-28,-12,-5,-24,-38,-25,-10
7311573221,-10,3,-1,-17,-3,12,18,3
7311573980,-6,-2,3,10,5,-3,-5,-5
7311573980,3,-24,-1,1,6,-15,-5,0
7311587581,10,12,-1,5,-3,-5,17,6
7311587581,11,-3,-4,-4,1,22,-9,-2
7311595726,-7,-13,-3,-2,-12,-11,3,-1
7311595726,-15,-4,15,-3,-11,-14,0,-4
7311610058,7,17,6,3,8,11,-10,-1
7311610058,1,-14,-7,-16,-17,-18,-3,-4
7311618242,-1,-4,1,18,36,12,8,-2
7311618242,2,10,-2,21,-2,11,4,0
7311633201,-7,-5,-4,-23,11,-17,-7,-5
7311633201,-4,-22,2,-6,-13,13,-4,2
7311633970,6,14,-5,-6,-4,-14,-1,-4
7311633970,-28,-3,8,-14,-22,5,-9,-2
7311647565,2,2,-8,27,25,-13,0,-1
7311647565,-14,-16,7,-2,-8,4,-12,-8
7311655742,9,16,6,10,-10,-5,10,4
7311655742,7,14,5,17,47,-1,3,-2
7311670093,-29,-28,12,-3,-2,17,-11,-10
7311670093,20,14,-13,-11,6,-18,4,4
7311678183,-8,13,-1,41,-18,14,4,5
7311678183,-5,-11,1,-19,-4,-3,-9,-7
7311693232,3,26,6,12,4,-8,-3,0
7311693232,4,7,-4,-3,4,-1,7,4
7311693966,-6,-15,25,72,21,-5,-4,-1
7311693966,-1,1,-23,-67,-6,0,-6,-1
7311707486,13,19,-13,-11,-13,15,17,5
7311707486,7,9,-13,6,15,-2,-5,-1
7311716391,4,13,2,-6,-4,-1,-1,1
7311716391,-2,-4,10,16,-11,4,6,4
7311730029,2,-1,-1,0,3,-3,2,1
7311730029,-15,-9,-3,5,8,-8,0,-7
7311738921,-8,-3,-6,-36,-16,1,-11,-5
7311738921,6,-9,6,17,3,0,3,2
7311752536,6,17,-4,-11,-8,-1,24,7
7311752536,-5,-13,-7,6,3,14,-20,0
7311761421,-6,-6,-2,-18,-3,-21,11,-8
7311761421,4,5,-4,-7,-11,25,-49,2
7311767616,-1,-3,1,10,4,-13,7,-2
7311767616,5,-16,4,1,-1,-7,-13,6
7311776430,2,-24,-9,-22,0,13,15,-8
7311776430,5,-1,-2,10,-4,-28,-7,-11
7311790043,-12,-6,8,-1,-9,16,-33,7
7311790043,0,-15,-2,2,-1,-21,-2,-2
7311798959,19,-7,-8,-18,-4,5,11,11
7311798959,-5,1,1,10,3,2,21,2
7311812533,-12,-25,-5,-1,-8,-5,-10,-13
7311812533,-6,3,1,-2,-1,-6,11,-3
7311821437,-17,0,-5,-9,-4,-5,-10,0
7311821437,10,-12,-7,-5,-14,3,4,-2
7311827442,11,13,6,3,2,3,11,4
7311827442,-3,-14,2,-6,-15,-2,-4,-3
7311836424,1,-1,-6,-9,3,-1,-4,-5
7311836424,-9,5,-2,4,0,10,7,0
7311850041,8,8,15,20,33,22,2,6
7311850041,-8,23,5,16,5,-3,4,-2
7311858929,19,17,-16,-17,-13,-9,-19,-2
7311858929,-4,-14,-15,-14,-12,-13,6,2
7311872418,-2,7,5,-7,-18,-11,-3,-3
7311872418,4,18,11,10,-3,-4,1,-3
7311881408,-22,-1,-11,-29,1,6,-1,-1
7311881408,27,-2,-4,-7,-2,1,1,5
7311887588,-37,-1,7,17,-5,1,6,-5
7311887588,-3,-28,-12,-6,4,1,-5,-5
7311896423,0,13,-1,-21,-12,-5,-8,2
7311896423,29,47,36,22,-2,1,3,0
7311910055,-2,-63,-38,-5,22,7,9,4
7311910055,-27,27,0,3,-2,2,2,-3
7311918916,1,29,15,4,2,4,1,-2
7311918916,-1,-10,5,-8,-14,-3,3,0
7311932589,13,-8,19,3,-8,0,-1,-2
7311932589,-6,12,-17,-17,0,-4,-2,1
7311941401,-10,-29,-9,7,-1,-7,-5,-2
7311941401,0,9,3,-5,5,11,5,2
7311947526,26,10,1,5,-8,-3,-5,0
7311947526,-5,32,8,-2,9,-19,8,1
7311956398,-10,-16,-3,5,4,28,3,-3
7311956398,-23,-21,-11,-1,-3,-17,-1,-4
7311970079,-13,-16,-7,-13,4,-2,-2,-4
7311970079,7,-26,7,9,-18,5,6,-3
7311978900,-7,-10,3,-4,-6,9,0,3
7311978900,0,-9,-5,16,17,-6,-1,3
7312001318,-2,12,-1,-13,-20,-12,3,-2
7312001318,24,8,2,12,26,6,5,4
7312002915,-6,-8,5,15,10,29,8,-4
7312002915,-12,5,-12,-25,-34,-9,-14,-1
7312016409,7,22,5,10,4,-13,-9,-2
7312016409,11,-10,-7,-13,-15,-11,-6,-1
7312017943,3,-10,1,1,9,16,7,4
7312017943,0,4,10,29,17,-14,6,-4
7312030035,-13,-3,-22,-45,-13,-7,-6,-10
7312030035,-15,-32,-3,-15,-19,-3,-7,-9
7312038916,4,5,9,32,17,-28,-5,-2
7312038916,1,4,-12,-8,-11,24,5,0
7312052535,-16,-8,8,13,12,-8,1,-1
7312052535,1,-12,-4,-30,2,14,0,-1
7312068937,0,0,7,5,-11,-19,-4,0
7312068937,1,-10,-27,5,10,-13,-1,-9
7312076390,3,9,1,-28,-7,25,10,4
7312076390,-8,-3,-6,19,-8,-8,-10,-3
7312077918,-8,9,21,9,3,-1,-6,-1
7312077918,5,-20,1,-7,19,8,12,4
7312090083,24,33,11,16,-14,9,-8,4
7312090083,5,22,-8,26,-8,-21,-7,-2
7312098916,-19,-32,7,-12,-7,3,-2,-5
7312098916,-1,16,-3,10,8,3,1,4
7312112540,-12,-1,-14,-16,-2,-10,-4,-6
7312112540,-8,-5,15,0,1,15,1,-8
7312121419,18,23,-14,6,-2,-20,-11,4
7312121419,-6,3,5,-10,-1,3,-5,-1
7312136320,5,1,-4,5,-11,-1,1,0
7312136320,1,17,-5,-5,12,-2,9,2
7312137908,0,20,-15,-8,-6,0,-11,0
7312137908,-10,-7,7,-3,-13,-15,-12,-6
7312150058,10,9,-2,13,7,-15,-6,4
7312150058,9,-10,1,3,7,2,14,4
7312158892,-23,-19,1,-13,-6,11,2,-13
7312158892,-1,-19,-5,-1,0,-4,3,11
7312172509,13,-7,10,6,1,-12,-17,2
7312172509,0,-5,4,-1,4,21,15,-4
7312181443,10,-2,-12,-9,-9,-11,-13,3
7312181443,-6,-1,0,0,1,-2,0,4
7312196392,-9,-23,-1,-1,-5,-8,-12,-10
7312196392,-8,-30,-5,-7,-1,-17,-6,-3
7312197989,-2,-24,-5,-2,-8,-41,-6,5
7312197989,7,-11,-4,3,9,57,-4,-8
7312210062,-9,-1,-3,-5,-3,-18,4,12
7312210062,4,15,5,-2,-4,20,16,-14
7312218892,-14,-11,-7,-2,-1,8,27,5
7312218892,28,24,-1,-6,-4,-10,-4,3
7312232511,-7,11,10,8,4,2,15,3
7312232511,9,18,9,-1,-3,9,-3,7
7312241423,-20,-31,-16,3,-1,-1,6,-4
7312241423,3,-16,5,1,-1,-7,-16,-9
7312256369,-8,41,-3,10,-7,8,4,3
7312256369,5,34,14,6,-12,-12,-18,-6
7312257939,-9,-1,-72,-40,9,0,-10,-7
7312257939,-31,-18,76,60,-12,-7,2,-4
7312270037,8,82,-62,-66,26,18,7,2
7312270037,-23,-72,-1,-24,-10,-11,-18,-14
7312278906,3,53,-27,-86,2,9,3,-3
7312278906,9,38,-36,-5,-13,-18,-5,-1
7312292503,-14,-40,-14,2,-11,-11,-3,0
7312292503,-14,-78,-6,0,-9,-1,-16,-1
7312308919,-18,4,24,74,16,10,-1,-10
7312308919,-6,1,-51,-62,6,-6,-6,-3
7312316347,17,-13,35,37,-9,8,10,-5
7312316347,25,74,14,-25,-6,-10,-6,15
7312317939,30,-61,-27,-17,-16,-7,0,5
7312317939,-2,13,10,13,0,9,-3,4
7312330085,-28,-13,25,-2,9,-1,16,-10
7312330085,5,1,-41,3,-9,-20,-22,0
7312338917,3,47,37,30,7,34,32,12
7312338917,17,14,14,18,13,-7,4,5
7312353845,0,-4,-6,-37,-33,-8,-21,-8
7312353845,-11,-1,14,20,17,20,12,-2
7312361476,22,-1,26,57,37,-23,-1,6
7312361476,-25,-44,-13,-42,-16,20,11,-7
7312376332,-1,-43,4,-1,2,-4,-14,-6
7312376332,4,8,-19,-19,-25,-28,-1,2
7312377917,-5,-6,-4,-12,-2,-12,-22,-7
7312377917,1,-18,6,-4,-16,4,-9,-4
7312390056,9,11,11,70,59,30,19,1
7312390056,1,-10,-17,-27,24,0,17,2
7312398901,-1,3,19,17,-4,3,-10,-5
7312398901,-6,-3,1,-2,-13,-15,0,-1
7312412512,0,-12,-10,-37,-16,-5,-9,-1
7312412512,-8,-2,8,33,4,-4,-6,0
7312421429,-2,-13,-2,-17,-4,3,-2,-4
7312421429,-3,2,-23,-35,-7,-18,-4,-5
7312436356,6,-6,-10,10,-5,-5,0,1
7312436356,19,43,10,37,6,9,-7,10
7312437922,-4,17,-8,-50,-22,-7,-7,-2
7312437922,4,20,17,68,35,21,15,5
7312449952,2,3,-24,-53,-6,-10,-8,-6
7312449952,-11,4,14,28,9,13,10,0
7312458895,10,7,13,11,-8,2,4,2
7312458895,-8,-6,-12,4,17,-1,2,-5
7312472527,-2,-23,7,14,-17,9,-16,-2
7312472527,0,-5,-1,-15,-4,-7,-7,1
7312481412,1,0,0,1,-4,-1,-3,-2
7312481412,-10,-24,-9,-16,4,-11,1,-4
7312496359,1,5,-5,29,-5,1,-1,0
7312496359,-4,-2,-14,-19,6,1,0,0
7312497946,1,-7,5,-2,-10,-2,-10,-6
7312497946,14,28,9,1,-11,-8,0,5
7312510074,-3,-6,-1,-11,-4,-3,-5,3
7312510074,4,4,6,-6,0,9,8,1
7312518915,-2,0,7,13,10,-21,3,0
7312518915,-10,-5,-2,-7,3,18,0,-1
7312532501,1,-3,-1,-6,-2,13,-3,0
7312532501,3,-2,2,2,1,6,11,-2
7312541413,11,3,5,2,-2,-11,-2,4
7312541413,-1,1,-2,-9,-9,-13,5,-5
7312557642,-5,7,4,8,6,27,-8,3
7312557642,-13,-27,-10,-8,-5,-6,7,-8
7312559296,-37,-18,-4,-5,-6,2,-17,-7
7312559296,-4,-3,-4,0,-2,-16,0,-2
7312569962,-4,10,3,5,0,-18,-13,-7
7312569962,13,7,-1,-5,1,-1,32,6
7312578906,11,13,6,0,-1,25,-2,2
7312578906,3,-12,-2,1,-3,-11,-17,-6
7312592431,3,-5,1,3,-5,-10,11,1
7312592431,-5,-5,-6,-7,-2,5,-22,-5
7312601403,7,-8,0,0,-1,-4,5,4
7312601403,-15,6,1,-1,0,4,1,1
7312616355,2,-21,2,3,-4,-2,12,-4
7312616355,-4,-4,2,11,12,-2,-6,0
7312617942,9,2,0,5,-2,-4,1,-2
7312617942,12,-2,4,-17,-12,2,-5,2
7312630087,-12,5,-10,17,13,-10,1,2
7312630087,-4,-2,-2,-4,-4,2,-3,-1
7312638917,10,16,10,14,4,5,1,1
7312638917,-29,-13,-19,-14,-2,-1,-2,-6
7312652508,-1,-4,5,10,0,-6,3,-1
7312652508,-5,13,12,-12,-13,-2,-7,1
7312661439,8,-36,-9,7,3,1,1,0
7312661439,6,27,3,-8,-3,-3,-3,-1
7312676379,12,26,8,-9,-1,-1,3,4
7312676379,13,-11,-6,-10,-6,-3,-3,3
7312677922,-27,0,-18,-11,3,1,5,-1
7312677922,-10,-4,1,10,-3,-4,-9,-6
7312690022,-3,6,3,-6,1,0,2,-6
7312690022,5,-22,-15,-3,-2,10,-10,0
7312698910,3,34,14,-10,-10,-6,0,1
7312698910,-4,-19,-2,7,3,0,2,3
7312712477,0,0,-9,-3,-7,-2,-2,-4
7312712477,-17,1,-5,3,-3,-7,-3,-6
7312721389,-7,-15,-6,10,3,5,-9,-6
7312721389,47,67,13,13,10,1,2,12
7312736348,-19,-58,-5,-2,7,0,-1,-2
7312736348,-20,-17,-3,-1,-14,-15,1,-9
7312737928,7,17,-15,-21,-10,-3,-5,0
7312737928,-3,-4,1,-2,7,9,12,1
7312750071,16,40,16,7,-4,-3,0,-2
7312750071,-19,-34,3,11,16,18,9,1
7312758892,-4,-11,-9,-23,-8,-20,-13,-9
7312758892,-8,-19,6,4,-12,-14,-11,-5
7312772492,3,-6,-8,-4,-24,-2,18,9
7312772492,6,5,-6,-8,12,1,-13,-6
7312781351,7,1,13,15,-15,3,16,9
7312781351,-18,-19,-2,-1,22,2,6,-3
7312796384,-3,1,5,-1,3,-9,-9,-3
7312796384,3,19,3,14,-3,-12,-2,2
7312797952,11,-8,1,-5,7,1,1,-2
7312797952,-5,-4,1,-3,-19,5,-4,-5
7312809980,-7,-14,-17,-50,-22,-12,-8,-5
7312809980,18,30,8,32,31,-4,1,4
7312818937,-7,-4,15,14,40,5,5,-2
7312818937,3,-19,-11,-37,-34,6,-3,-4
7312832483,5,17,-22,-8,7,-17,-9,-4
7312832483,-14,-6,17,49,18,10,3,-9
7312841389,-2,3,-6,43,17,-12,-6,1
7312841389,0,-3,-46,-37,-13,-7,-2,0
7312856358,19,15,9,41,11,-2,3,4
7312856358,-13,-11,-27,-71,-21,0,-1,-3
7312857940,-5,2,10,20,-14,-2,-5,0
7312857940,15,31,24,53,22,-13,-1,-1
7312870063,-25,-17,15,-22,-21,1,-2,-6
7312870063,13,-5,5,5,22,8,7,8
7312878925,-5,-13,-7,-46,-12,14,6,-4
7312878925,6,-6,8,46,-12,-5,5,7
7312892914,-5,5,-39,-24,17,-4,0,-1
7312892914,-7,26,6,-17,-20,5,-8,-1
7312901322,-1,-5,-32,-25,-16,-3,-13,-4
7312901322,4,8,13,1,6,4,29,4
7312923752,-6,4,12,11,6,8,1,0
7312923752,6,-6,-1,-19,-16,-8,-3,-4
7312925334,19,21,4,9,-7,-11,-6,4
7312925334,-18,-2,-8,2,19,11,27,8
7312929961,1,7,11,4,-9,-32,9,-2
7312929961,8,1,-9,-6,-2,19,-11,4
7312938924,23,26,14,-10,-10,-25,3,5
7312938924,-23,-11,-1,5,18,56,8,-8
7312953215,-20,-56,0,-11,-17,14,4,-7
7312953215,-9,-34,2,-1,-10,-13,-3,-4
7312959983,-9,-36,-7,-3,3,1,19,-3
7312959983,25,-2,0,-14,0,13,-34,9
7312975694,10,1,-3,1,3,-11,-30,7
7312975694,-10,7,-6,3,-1,2,3,-12
7312982489,5,7,6,6,5,21,11,7
7312982489,-7,-19,-3,-12,-9,-30,-12,-10
7312989982,3,1,9,3,2,19,4,-6
7312989982,-5,-42,-9,-2,-6,-14,-8,4
7312998940,-10,3,14,-1,-3,-13,-8,-2
7312998940,-1,1,-10,-5,-11,-4,-4,-1
7313013189,-33,-18,-28,-19,0,9,-9,-3
7313013189,18,28,0,1,-6,-10,3,1
7313019983,-3,6,1,22,6,11,2,-1
7313019983,-11,-5,-4,-44,-7,-9,-7,-7
7313035703,-5,29,1,2,-10,0,5,2
7313035703,7,16,0,3,6,-4,3,3
7313042540,2,7,2,-9,9,7,2,-1
7313042540,20,-13,9,18,10,2,-1,3
7313049995,-45,37,36,55,-5,-13,-9,-15
7313049995,-8,0,-36,-93,-14,1,0,2
7313058934,11,11,-33,-13,-4,-5,-12,-5
7313058934,11,49,11,25,-5,-7,29,5
7313072492,-2,-77,-5,-11,9,3,-27,-4
7313072492,-3,27,26,47,0,-3,-1,1
7313081346,-25,27,-8,-10,-7,1,0,-6
7313081346,11,-6,-20,-23,-5,-10,-7,-1
7313095642,7,45,2,7,-2,2,9,-2
7313095642,15,-30,11,32,8,9,1,6
7313102346,0,20,-2,-27,0,0,1,0
7313102346,-33,-25,5,10,-3,-4,10,-4
7313118801,16,7,9,12,7,6,-20,4
7313118801,-15,-31,-23,-18,0,-8,-5,-2
7313120314,18,-14,6,11,-13,-6,5,-1
7313120314,-25,-24,-7,-8,2,-9,-10,1
7313133208,29,11,0,0,3,8,12,-1
7313133208,12,15,1,-10,-4,4,8,0
7313140056,-2,-20,7,21,8,1,-14,-2
7313140056,-11,14,4,-18,-1,-29,-20,-4
7313155643,3,-26,-9,-12,-31,22,12,1
7313155643,1,5,9,49,27,-3,-7,-1
7313162478,-23,-24,-1,-15,-2,-7,14,3
7313162478,19,-10,4,4,1,4,-9,-5
7313178831,-6,-6,-4,-2,24,-12,4,5
7313178831,6,13,9,8,-39,-13,-6,0
7313180345,-10,-15,1,-14,6,21,5,-5
7313180345,2,-12,1,19,19,12,5,5
7313193170,16,17,-10,-10,-8,-14,11,0
7313193170,-2,12,7,12,-38,-3,-16,-7
7313199950,-8,-18,1,-17,13,-8,-7,-3
7313199950,8,10,-17,-16,-2,10,12,0
7313215668,-6,-12,6,-27,-4,1,0,-5
7313215668,0,5,-22,-5,21,4,10,6
7313230064,-8,-12,-2,-16,-27,-11,-12,-6
7313230064,12,6,-3,17,0,4,-8,0
7313238836,-10,20,0,-14,1,-3,3,2
7313238836,-9,-1,16,10,6,-4,-1,-6
7313240313,0,-1,-1,19,-3,-2,-5,-3
7313240313,0,13,12,-15,-4,3,5,4
7313252431,5,-18,-16,-5,-5,-2,1,-1
7313252431,-7,-8,-11,-1,8,0,-4,-8
7313261403,3,11,-13,2,4,-5,2,4
7313261403,-6,3,13,9,0,-1,-8,-4
7313275682,-1,10,-5,-13,-14,-13,-12,-11
7313275682,-2,6,21,5,7,9,9,2
7313282463,2,-10,-3,4,-9,-8,-6,6
7313282463,-10,-13,-20,-9,-7,-5,-8,-6
7313298815,7,11,-1,8,5,-1,-6,5
7313298815,-7,-4,-9,-14,-5,-16,3,-1
7313300339,4,9,-1,4,-2,5,5,-1
7313300339,-8,-11,-6,-6,-8,-2,-8,-5
7313312390,13,11,10,7,9,8,1,7
7313312390,-3,1,-4,-10,-3,-13,-2,-3
7313321401,-11,4,7,2,-1,-10,2,-3
7313321401,-18,-13,-11,-7,-8,5,-10,-12
7313335649,3,-13,-3,10,8,0,6,10
7313335649,5,-9,2,0,5,-7,1,5
7313342479,-6,-36,-1,-2,-5,-17,-14,-5
7313342479,6,-20,-4,1,-1,28,39,-4
7313358809,1,-18,0,1,-5,-15,31,2
7313358809,2,-15,-4,-10,-5,16,-20,2
7313360353,6,-3,1,0,-3,-1,2,-4
7313360353,-21,5,4,1,1,-14,0,-7
7313372503,6,-5,-2,0,-3,-2,-5,0
7313372503,-15,-11,0,-5,-1,8,9,-6
7313387503,0,-5,-2,7,4,6,2,-1
7313387503,26,-6,3,-3,-8,-9,-7,7
7313395655,-21,-15,0,3,4,8,-7,-3
7313395655,-5,22,0,-1,0,-7,7,-3
7313402327,12,21,2,0,-5,4,-9,-1
7313402327,-9,-1,-2,2,-1,-3,-10,4
7313418833,15,7,-1,4,8,2,9,1
7313418833,3,38,1,-5,-5,9,-18,-4
7313420320,-17,-31,-5,-1,1,1,18,-1
7313420320,22,8,2,0,1,-5,-23,2
7313432431,-43,-29,-9,-1,4,4,-5,-11
7313432431,-14,12,-19,-18,-10,-11,3,-4
7313441378,12,-5,13,20,1,6,4,1
7313441378,10,69,21,11,1,-5,-12,4
7313455669,19,2,-34,-34,2,0,2,-3
7313455669,-2,-13,19,46,5,4,-2,5
7313462472,-14,-46,-7,-15,-2,0,-5,0
7313462472,4,28,13,-1,10,-3,1,-9
7313478792,17,-14,-8,5,-4,3,-2,11
7313478792,0,18,2,-11,-5,-7,0,-3
7313480321,1,12,-12,-16,-5,3,-2,1
7313480321,-10,0,26,28,1,-3,-4,1
7313492462,-18,-27,-7,-7,-12,-8,-9,-16
7313492462,20,36,14,2,4,6,30,9
7313501356,-14,-43,-11,-1,-8,-5,-34,-8
7313501356,-25,6,-14,-35,-8,0,1,-3
7313515658,-13,9,10,30,4,-3,2,0
7313515658,4,-3,0,-18,-4,-1,-3,-5
7313522471,19,63,-4,23,11,4,3,4
7313522471,6,-19,-14,2,2,2,15,6
7313538778,14,18,11,1,-3,-1,-13,-5
7313538778,-22,-29,3,0,-5,-2,-7,-5
7313540298,1,24,12,-3,-6,-7,-1,-2
7313540298,-6,-40,-23,-15,-3,1,-2,-2
7313552482,10,5,10,18,12,9,8,8
7313552482,12,-7,-3,-2,10,2,-1,0
7313561294,-4,-22,-4,-10,-3,4,2,-2
7313561294,3,-6,7,-3,-13,-15,-2,0
7313575684,-4,10,4,-9,0,1,-7,-4
7313575684,-9,-35,-23,-6,-10,-2,1,-7
7313582435,6,7,9,3,10,2,3,4
7313582435,-10,-12,3,16,1,-1,-4,0
7313598790,1,10,-2,-22,-5,-1,-1,-4
7313598790,0,-13,-13,-18,-3,-8,-2,4
7313600341,2,5,1,6,-5,8,-1,-2
7313600341,1,-3,-2,0,4,-3,-1,-1
7313612442,2,8,17,19,-3,11,5,-3
7313612442,3,-3,2,2,10,-8,-5,-1
7313621344,-16,0,-9,-29,-13,-9,-3,-5
7313621344,0,0,-9,1,6,5,-7,-3
7313635610,-1,-3,-5,-3,-8,-13,-6,1
7313635610,4,-2,6,11,-2,-1,-1,-3
7313642476,3,12,4,-2,-4,9,3,-1
7313642476,8,-4,5,29,28,-1,2,-3
7313658808,-16,-7,9,12,-17,4,-2,-1
7313658808,15,1,0,3,-13,-5,-3,3
7313660337,-8,8,-2,1,11,7,2,-1
7313660337,-3,-7,-29,-53,-16,-11,-4,-4
7313672459,10,4,3,11,8,-4,3,1
7313672459,-1,9,-6,-11,6,12,0,1
7313681305,-3,1,15,32,3,-10,-1,-3
7313681305,-1,-3,-6,2,5,1,2,-2
7313703716,2,-4,0,0,10,-1,-1,4
7313703716,-11,-6,0,1,1,1,-7,-4
7313705317,10,3,-1,-9,-6,-2,1,-1
7313705317,0,5,4,12,-7,-3,-2,3
7313718799,3,-4,-7,-5,-2,-5,-2,1
7313718799,-7,-6,-1,0,-6,3,-1,-2
7313720321,4,6,-1,-16,-2,-4,-2,1
7313720321,-1,-15,-5,-7,4,5,2,-3
7313732951,-8,-2,-6,-3,0,-1,-2,0
7313732951,-4,2,-4,-7,2,0,-1,-2
7313741361,-2,-2,-7,4,-5,-4,-2,-1
7313741361,12,11,6,3,-8,-4,-3,1
7313755583,-23,2,4,-14,-7,-5,-6,-3
7313755583,-7,-17,-5,8,0,-4,0,-3
7313762398,-5,0,-2,2,0,-1,-2,-1
7313762398,12,6,2,-15,-4,6,3,3
7313778860,9,-2,-4,8,5,0,-3,1
7313778860,-2,1,-6,-1,0,-1,0,0
7313780344,-1,-5,-9,-17,-2,0,-1,-1
7313780344,-2,3,6,13,1,3,3,2
7313792467,1,1,-4,-13,-3,2,0,-2
7313792467,-1,-2,5,4,1,-3,1,-2
7313801352,4,-3,0,7,4,2,3,0
7313801352,-2,-4,-3,-3,-8,-6,-3,-2
7313814932,5,5,2,-2,3,0,1,1
7313814932,2,-6,5,9,-2,1,0,-1
7313823965,7,0,-14,-17,2,-6,1,3
7313823965,-26,-14,1,9,-4,1,-3,-5
7313838818,6,-4,-7,-8,-2,-9,-11,2
7313838818,4,5,-2,-6,-3,13,-7,-2
7313840320,11,5,2,7,-1,-2,0,4
7313840320,-12,-7,1,0,0,-5,-9,-4
7313861278,-7,-6,-3,-4,-1,0,-3,-5
7313861278,4,2,-4,-6,-3,-11,-1,0
7313862822,-15,-8,6,3,1,3,-1,-4
7313862822,13,-2,-5,5,4,6,6,4
7313874957,5,29,14,4,-7,-4,-2,0
7313874957,5,-36,-11,-4,0,-8,-3,-7
7313883916,-19,9,-15,-4,-9,-3,-2,-4
7313883916,1,-22,-14,-21,0,2,4,3
7313898106,-4,25,8,-2,0,1,3,-7
7313898106,-4,17,11,5,9,8,9,6
7313904956,-15,-77,-27,-10,-8,-5,-8,-10
7313904956,8,33,9,0,-6,-7,-5,-3
7313921383,7,-19,-11,-7,-11,-5,-1,-1
7313921383,21,10,13,27,-1,-2,-6,4
7313922821,-11,24,15,-6,6,3,-1,-5
7313922821,-38,-49,-28,-24,-9,-4,-4,-11
7313934973,20,21,-19,-18,5,6,3,5
7313934973,-8,14,2,-16,-4,-4,2,3
7313943803,14,11,13,23,1,6,2,6
7313943803,17,10,12,3,2,-6,-9,2
7313958064,-27,-10,7,15,3,6,4,-5
7313958064,-15,-20,-14,-9,13,3,-5,-2
7313964931,21,21,8,11,2,2,9,2
7313964931,-5,0,10,8,-3,-4,-3,-3
7313972484,8,-19,-9,-15,-4,-6,-3,2
7313972484,2,23,-8,-17,-9,-2,2,2
7313981341,0,14,3,-1,-2,-5,-7,-2
7313981341,7,20,1,7,-4,-2,-1,0
7313995640,-28,-29,-3,2,-1,-3,-4,-7
7313995640,-18,-11,8,17,1,4,6,-6
7314002335,-10,-12,-7,-23,5,3,-6,-4
7314002335,13,-4,-1,9,6,1,4,6
