timestamp,emg1,emg2,emg3,emg4,emg5,emg6,emg7,emg8
7051155960,-5,68,3,1,-3,5,-5,-1
7051155960,-4,-19,-3,-8,1,-2,5,-3
7051156731,-2,-54,-2,-3,-4,-1,3,0
7051156731,-1,51,-1,-4,-1,2,10,-10
7051157565,9,0,1,-2,0,-2,-25,9
7051157565,-3,-42,-2,0,-2,-5,-3,2
7051161179,-14,29,1,1,1,6,-3,-3
7051161179,-2,13,-2,-3,-3,-16,-1,-2
7051168294,5,-41,3,2,1,13,10,-2
7051168294,-5,9,-10,-5,-6,-19,-10,-5
7051179851,4,39,-4,-1,2,12,0,0
7051179851,2,-24,2,-1,0,1,-9,-2
7051183446,-6,-33,-2,-1,1,-5,26,3
7051183446,11,47,4,3,3,12,-2,4
7051199918,-13,-10,-2,-2,-3,-12,-6,-4
7051199918,4,-36,-7,-4,-2,-5,-7,1
7051207115,-10,23,-6,-5,-1,3,4,0
7051207115,-9,2,2,3,4,3,-7,-4
7051214916,-2,-18,2,1,-2,-10,4,-11
7051214916,11,2,2,1,1,9,-20,14
7051228541,9,21,4,-1,-1,-11,1,-4
7051228541,10,3,1,-1,0,15,7,11
7051276641,-29,22,-8,-5,2,0,-3,-6
7051276641,7,-92,-4,-3,-2,-2,-3,0
7051277644,-4,106,0,-13,-13,-2,0,-1
7051277644,36,86,30,10,5,7,4,15
7051278296,-10,-75,-12,-1,-2,-10,-13,-19
7051278296,-1,23,-5,1,-6,1,2,-1
7051282134,-25,16,-28,-8,2,-3,-1,-4
7051282134,-35,54,-6,-29,-13,-6,-9,-10
7051288232,13,-61,15,17,27,17,19,14
7051288232,-4,89,10,-13,-4,-2,-2,-1
7051297128,14,20,18,49,-34,-10,-14,-9
7051297128,-4,-41,7,78,7,-13,-6,-9
7051303257,5,4,-89,-63,11,-2,0,3
7051303257,1,-17,1,24,8,7,4,-3
7051319639,9,-48,-7,-18,15,8,19,6
7051319639,-6,-44,2,1,-2,3,-13,4
7051325731,14,76,37,5,-28,-12,-15,2
7051325731,6,53,-2,11,-4,-7,-7,1
7051334638,2,-1,-3,-4,0,-6,1,2
7051334638,0,49,2,-19,-6,0,2,-7
7051348312,0,25,13,7,8,-4,37,4
7051348312,-14,60,-15,-22,-6,-2,-16,-3
7051357134,13,77,24,11,4,4,-1,4
7051357134,1,31,-14,-37,-6,-12,-6,-10
7051363177,-4,30,7,18,-11,19,-1,6
7051363177,-9,-45,11,14,3,1,6,-4
7051379595,6,-128,-4,7,7,-4,-7,-1
7051379595,6,-96,-11,-11,29,13,20,7
7051385760,2,-36,6,2,-4,-17,-18,-4
7051385760,8,-93,1,29,-10,-14,-8,1
7051394642,-24,-82,-2,1,-28,-16,-14,-11
7051394642,6,-10,-25,-38,-6,32,0,2
7051408170,-5,-31,39,30,54,0,2,-3
7051408170,-9,-29,-12,-46,-19,7,2,-1
7051417096,12,33,-4,-18,39,-13,1,-1
7051417096,-15,-35,8,7,-31,-22,-4,-8
7051423321,4,-16,-18,3,-22,-1,1,-2
7051423321,-3,9,2,17,4,-4,5,-5
7051439660,2,14,3,-2,2,-4,-11,3
7051439660,4,-29,-3,-12,-13,-3,0,-1
7051445669,-3,1,0,-4,5,7,-13,-3
7051445669,-10,8,25,-21,3,5,4,-7
7051454616,-1,-16,2,-2,-9,1,-14,9
7051454616,0,7,-11,8,13,3,-2,2
7051477122,-11,6,7,-15,-24,3,2,-14
7051477122,5,4,-6,9,9,0,-5,4
7051478600,-4,-13,-11,-13,0,18,22,0
7051478600,-14,-21,3,7,4,-22,-33,-3
7051483254,4,19,-7,1,-4,6,-10,5
7051483254,6,-2,-4,-9,-1,-11,12,-6
7051499659,-11,6,5,5,10,30,5,-1
7051499659,-1,5,2,10,5,-14,-24,5
7051505760,8,8,-6,-5,-15,-12,12,0
7051505760,-8,-2,-5,-3,3,16,2,1
7051514687,2,-4,-2,-1,-4,-22,-13,-5
7051514687,4,7,-2,0,-2,-8,18,-6
7051528270,-10,-11,2,-1,0,8,-3,0
7051528270,10,8,-1,5,4,2,3,4
7051537162,5,-4,-5,-8,-8,-18,3,1
7051537162,-10,-13,-1,-1,0,18,8,-2
7051543158,13,-2,-3,-1,-3,-6,-1,0
7051543158,-9,-1,-4,-4,0,-7,-6,-1
7051559639,1,4,-1,-2,-4,-4,2,-7
7051559639,-6,-1,1,0,-2,12,12,1
7051565737,10,5,2,-3,-2,-1,2,4
7051565737,-2,-10,-6,-3,-2,-1,-3,-2
7051574642,-7,2,5,4,2,5,-2,-2
7051574642,-7,-3,-7,-6,2,-3,2,0
7051588265,1,3,-3,1,-2,-1,1,1
7051588265,8,8,3,-6,-6,-4,-4,1
7051597138,6,5,-7,-5,3,6,0,1
7051597138,10,13,-1,4,1,-1,5,3
7051603299,-20,9,19,21,-2,-4,-7,-8
7051603299,-32,-14,-29,-28,2,-2,1,2
7051619617,-2,7,-16,-20,-14,-7,-7,-3
7051619617,13,32,19,13,10,12,12,3
7051625737,7,-3,28,13,5,0,-5,-5
7051625737,13,3,-39,-17,5,0,3,3
7051634638,-37,-43,-6,-1,-9,-4,0,-6
7051634638,-4,16,-15,-25,-12,-11,-8,-5
7051648246,32,93,12,-30,-18,-8,-3,9
7051648246,-1,-65,17,49,12,7,1,-1
7051657095,-2,87,32,-14,22,6,3,1
7051657095,-4,-41,-22,12,-3,-1,-3,0
7051663135,-12,9,-18,-45,-8,-10,-5,-2
7051663135,34,52,2,-11,-4,4,5,7
7051679594,14,-17,23,15,-4,0,-7,1
7051679594,-36,-5,31,63,6,4,10,-4
7051685655,-2,-36,-32,4,11,0,-6,2
7051685655,3,18,-2,-30,-7,-5,-13,-9
7051700595,3,-12,-11,7,-3,5,-1,5
7051700595,21,64,15,3,4,-3,-5,4
7051708077,-17,-10,-17,-32,-19,-15,-6,-6
7051708077,0,13,11,5,-24,-7,-2,-1
7051717160,-1,48,0,23,31,18,4,-5
7051717160,8,-27,-11,-11,13,-6,17,-1
7051723163,-12,-13,8,7,-14,10,19,7
7051723163,0,7,10,42,41,-12,-11,-2
7051739619,-1,-30,-23,-41,-38,10,7,-4
7051739619,8,-24,-5,-5,10,-14,-1,2
7051745680,0,-25,6,28,21,19,4,-4
7051745680,-8,-18,4,-5,-22,-2,-9,-1
7051760729,-7,-32,8,6,4,-9,3,-2
7051760729,9,2,-5,-6,16,2,-2,2
7051768131,-18,-20,8,-3,-17,6,-15,-12
7051768131,-10,-3,-1,6,17,3,14,1
7051777123,-3,-18,2,1,-7,-14,-4,-4
7051777123,-10,-17,-28,-40,-27,-6,-10,-5
7051783258,-1,-9,-10,12,10,-10,-6,-9
7051783258,-13,-24,-14,-31,-22,0,15,-1
7051806414,-3,-15,2,1,9,8,6,-1
7051806414,-7,-15,5,-4,3,17,9,1
7051807098,11,14,-11,6,-2,-1,1,5
7051807098,-14,-19,10,-1,0,-1,-7,-5
7051820767,10,7,-16,14,8,5,19,7
7051820767,-3,19,9,4,-8,-18,-10,-4
7051828284,4,8,-14,-8,0,9,0,-1
7051828284,7,18,4,12,-2,-2,0,2
7051837119,3,8,-2,4,6,-4,-13,-1
7051837119,-10,-13,8,-6,-14,-5,-8,-7
7051843263,0,-8,8,4,7,-4,9,3
7051843263,5,24,-5,2,-2,-10,-4,-4
7051858269,4,2,1,1,-4,-1,-11,0
7051858269,3,4,-5,0,-4,4,1,5
7051865782,-1,-2,-4,-3,-2,-6,8,-2
7051865782,-7,-2,0,-8,-1,0,-12,-7
7051880736,3,-2,4,1,-1,-7,17,7
7051880736,5,-3,1,5,-1,10,-5,-5
7051888232,-1,-13,-3,1,1,-18,-49,3
7051888232,-2,1,4,3,-2,10,28,0
7051897119,-3,-7,-5,-8,-5,-1,-2,-3
7051897119,8,-1,-2,0,1,-9,3,4
7051903229,-9,-3,-4,-2,-2,-2,-4,-10
7051903229,-11,-4,2,0,-3,-6,-3,1
7051918281,-3,-15,-4,-4,-2,0,-4,-1
7051918281,12,0,-3,-5,0,6,5,-1
7051925618,3,2,5,6,0,-5,6,2
7051925618,-4,26,5,1,-1,-13,-13,0
7051940782,10,-26,-3,1,0,18,4,-1
7051940782,-10,12,2,0,-5,-5,1,0
7051948132,-3,51,-4,-2,-2,0,-2,-5
7051948132,-9,-48,-11,-7,-1,0,-4,-2
7051957112,-7,10,-4,5,-2,-8,-5,0
7051957112,2,29,-2,-1,-7,-1,-10,-6
7051963261,11,52,20,-2,0,0,1,7
7051963261,16,27,8,21,14,15,7,5
7051978207,-26,-2,6,-14,11,4,-3,-10
7051978207,-5,-28,9,15,-15,-9,-11,-5
7051985756,6,30,-55,-63,-5,3,13,6
7051985756,22,3,4,14,0,3,0,6
7052000668,8,-12,0,52,-19,-17,-9,1
7052000668,7,10,5,4,12,4,0,0
7052008221,5,45,-20,7,5,-2,2,-3
7052008221,-24,-60,-9,-12,-10,0,-11,-7
7052017112,24,91,19,-20,-20,-6,-4,3
7052017112,11,47,-25,-1,21,13,6,7
7052031453,-1,-105,27,29,-6,-4,-2,2
7052031453,-16,-9,0,-33,-8,-3,-7,-7
7052038236,-21,-63,-8,-28,14,-4,-4,-4
7052038236,8,44,-13,-8,-5,-1,2,1
7052045706,8,-28,-18,-18,-1,2,-3,-9
7052045706,-8,-3,12,31,2,-14,3,3
7052060734,-18,-2,12,10,-7,9,-10,-9
7052060734,2,-9,-14,-50,-23,-6,-6,-3
7052068255,1,1,11,22,-14,-11,-33,0
7052068255,15,22,11,-3,2,-2,30,6
7052077146,-12,32,-7,-9,24,27,18,2
7052077146,7,5,4,39,10,16,-6,-1
7052091352,-32,-1,13,2,-41,-24,-4,-8
7052091352,9,38,-17,-35,0,-12,-14,-6
7052098178,1,-22,-14,-5,-6,-14,-2,-1
7052098178,-18,-52,5,-9,-34,-8,-11,-10
7052105735,-7,-28,18,24,45,22,30,1
7052105735,10,-7,-12,21,9,9,-4,4
7052120746,8,-11,-1,-25,-22,-9,4,-2
7052120746,-26,-45,-9,-67,0,-21,-9,-11
7052128164,-2,-21,-23,-30,-27,-3,-3,-7
7052128164,-27,3,24,55,9,17,1,-6
7052137090,9,-2,1,31,4,-5,-7,2
7052137090,-2,0,7,-6,14,0,8,3
7052151372,9,-8,-15,-38,-2,3,5,7
7052151372,0,-10,-14,-21,-5,-1,-2,-5
7052158156,13,11,5,17,4,-6,-2,6
7052158156,-4,-3,5,21,4,5,7,3
7052165716,13,30,10,29,19,5,1,4
7052165716,12,15,7,6,-8,-11,-3,4
7052180741,-5,9,2,1,8,15,9,1
7052180741,-1,9,0,17,3,0,1,-1
7052188223,-4,-5,9,5,7,0,7,-2
7052188223,14,17,-21,-34,-11,-11,-4,1
7052197100,0,6,-10,-30,-13,-16,-13,-3
7052197100,0,-6,10,8,-2,6,5,1
7052211335,-25,-8,20,19,3,0,-2,-6
7052211335,-8,-10,-3,-16,-9,-3,-7,-6
7052218253,10,0,-14,-8,2,0,0,1
7052218253,-11,-17,-3,9,4,-2,-3,-1
7052225717,-2,-12,5,11,15,6,1,0
7052225717,-1,-1,-2,-4,0,9,6,-3
7052240653,-8,-12,-10,0,0,-3,11,-1
7052240653,2,6,-12,1,-7,4,10,0
7052248217,4,2,0,-5,-10,-16,5,-1
7052248217,-1,-8,-1,3,7,12,-25,-1
7052263214,5,-2,6,2,-3,-1,5,1
7052263214,6,-7,-1,-1,-4,-9,-35,4
7052271359,-5,-13,-8,-2,2,-21,-31,-4
7052271359,12,17,8,0,-1,24,22,0
7052286410,-6,-27,-4,2,-5,-4,-17,-5
7052286410,-1,9,3,3,3,-1,-8,-7
7052287062,-9,-4,-4,1,3,5,13,-1
7052287062,2,8,1,2,-3,-16,-9,3
7052300650,10,9,3,-2,-1,-2,-9,3
7052300650,-5,1,-3,3,5,4,15,-1
7052308104,27,28,6,-1,-5,0,6,5
7052308104,-4,-14,1,-2,-2,-1,4,-1
7052323128,-13,-14,-14,-5,-2,-2,-9,-9
7052323128,-8,1,12,-15,-15,-14,-7,0
7052331074,-7,16,-20,25,10,4,-8,-7
7052331074,-2,-37,-3,3,13,7,3,4
7052346383,18,28,14,12,4,6,1,-3
7052346383,-23,-70,-16,5,1,-3,-2,-4
7052347075,-26,-7,18,-14,-13,2,-1,-4
7052347075,-7,11,-49,-24,-3,-11,-5,-4
7052360709,-10,-7,-9,-6,-7,-10,-2,-2
7052360709,27,19,30,38,12,4,10,5
7052368218,4,-6,-33,-47,-9,2,-1,0
7052368218,17,31,23,3,-7,-7,-6,-2
7052383252,-27,-75,-11,-7,-1,-3,-6,-5
7052383252,11,37,-12,-7,-9,-2,-5,0
7052391404,-17,-4,11,17,10,5,4,2
7052391404,2,32,23,23,1,-3,-5,-6
7052406412,12,68,-15,-27,1,7,5,10
7052406412,9,-12,2,-20,-14,-6,-8,-2
7052407091,-8,-37,-14,-3,12,13,15,5
7052407091,0,-23,8,1,-1,-7,-12,-4
7052420683,-6,17,10,7,-8,-4,0,-6
7052420683,2,39,0,13,11,-14,-14,-2
7052428255,10,12,-7,-11,-14,10,-4,-4
7052428255,-1,22,8,3,-12,-11,-7,2
7052443222,6,5,2,7,16,21,14,8
7052443222,-6,6,6,12,13,6,9,-1
7052451323,-4,-7,-1,-19,-11,-17,-6,-4
7052451323,-10,-14,-4,20,1,8,0,-1
7052466373,4,-15,-1,-20,-10,-15,-11,-4
7052466373,-9,-20,-4,14,-17,14,1,-1
7052467044,8,9,-2,-3,25,2,0,-1
7052467044,1,-13,-5,5,8,-10,-1,3
7052480641,3,3,-3,19,-2,-1,4,2
7052480641,-1,-15,-8,-2,-2,3,2,3
7052488190,-4,-16,6,13,2,-5,-4,-6
7052488190,-9,-20,-9,-31,0,4,5,-3
7052503210,-3,-5,-14,-5,-3,-21,-11,-9
7052503210,-23,-17,-9,-23,-29,-1,13,-5
7052511460,9,-7,12,-8,-7,-11,4,-2
7052511460,6,10,-14,-8,4,5,-5,7
7052526254,-12,-11,7,-2,-2,-7,5,-9
7052526254,9,13,17,30,15,8,-3,5
7052527067,1,7,-18,-4,12,21,12,-1
7052527067,-5,-11,8,3,-7,-10,-7,-2
7052540688,23,16,11,5,-1,-5,-9,7
7052540688,-15,-11,5,-4,-2,-7,7,-2
7052548231,7,5,14,18,-5,4,-4,4
7052548231,-1,9,-1,-12,-4,1,-1,-8
7052563238,2,2,2,7,1,10,-16,5
7052563238,-12,0,-7,-18,0,-15,-1,-4
7052571390,-8,-3,0,-1,-7,-6,-5,-1
7052571390,-8,-1,-17,-18,-19,-13,-11,-8
7052586282,-1,9,8,2,3,-8,10,-1
7052586282,9,6,-6,-13,-1,12,-7,-3
7052587066,2,16,4,1,-8,-6,-4,1
7052587066,2,12,11,13,3,-5,11,-4
7052600606,-5,-6,-10,-7,-7,3,-16,5
7052600606,-3,-9,-6,-11,2,-6,9,-5
7052608160,-2,-3,2,19,6,-1,-27,2
7052608160,6,0,7,2,5,12,41,6
7052623192,-6,-12,5,1,-2,-2,-33,-2
7052623192,2,-11,-7,-6,-3,-2,17,1
7052631352,17,-7,0,-1,-6,0,3,6
7052631352,-14,-16,0,3,2,-9,-14,-5
7052646417,-12,-3,-4,-4,-3,11,6,-1
7052646417,5,4,-5,-2,0,-6,-10,-1
7052647066,-6,3,4,4,-4,-13,-1,-1
7052647066,-5,-9,-5,-3,-1,18,-5,0
7052668869,-2,-3,-1,3,0,-3,15,-4
7052668869,1,-5,0,1,5,5,-5,1
7052669572,19,-3,1,-1,-4,-2,5,1
7052669572,-3,11,-5,-2,0,1,0,3
7052683254,-20,-12,-2,-1,0,2,6,-2
7052683254,5,-2,2,2,2,-4,-11,-4
7052691386,-14,-2,-8,-8,-3,-3,-5,-5
7052691386,14,16,12,-4,-10,-2,1,2
7052706378,9,0,-17,19,16,1,3,2
7052706378,14,-16,-10,-11,-4,-2,-3,-1
7052707070,-7,15,22,23,-5,0,5,3
7052707070,0,34,-22,-25,3,8,-1,2
7052720730,-7,-28,8,-11,-16,-12,-2,-10
7052720730,7,-14,18,52,9,14,9,4
7052728211,-5,-31,-53,-65,4,-2,-3,-5
7052728211,-27,-53,-22,9,-8,-8,-10,-5
7052743218,16,0,11,-7,4,-2,-2,-1
7052743218,4,68,6,3,-7,-3,2,7
7052751376,25,-47,38,22,0,0,1,4
7052751376,-7,19,-23,2,-1,-2,-3,-4
7052766326,3,-3,-23,-29,-1,2,4,-4
7052766326,-47,-59,12,25,-15,-10,-8,-10
7052767232,3,127,9,14,15,5,3,9
7052767232,-1,17,-7,-23,2,3,-2,-6
7052780676,14,-5,11,5,-3,4,3,4
7052780676,20,25,2,-20,1,1,-5,3
7052788228,-14,-14,1,7,-14,-5,5,1
7052788228,-1,-78,3,16,6,2,12,1
7052803216,-2,34,4,7,-5,-5,-20,-7
7052803216,10,23,-3,-25,6,-8,-4,5
7052811422,1,-7,-5,18,-13,8,8,-7
7052811422,2,16,4,-25,-3,0,12,-1
7052826439,1,17,18,50,14,7,8,14
7052826439,2,0,-15,-14,19,-1,-4,0
7052827091,0,-11,-15,-15,-13,-13,-4,-3
7052827091,14,10,9,20,0,13,4,3
7052840605,-20,-5,2,-6,-8,-22,-1,-6
7052840605,-16,-21,0,2,-22,5,0,-6
7052848207,4,1,-6,-3,29,-2,-2,-1
7052848207,-14,-14,18,16,23,0,-13,-2
7052863108,9,-19,-3,-17,-13,-5,4,-2
7052863108,1,-5,-11,-25,-28,-25,-7,-5
7052871307,-6,-28,6,39,10,17,-7,-7
7052871307,16,-4,-6,-22,-10,-1,0,4
7052886071,-6,-4,-6,5,18,-5,4,-1
7052886071,3,14,0,-3,-2,7,9,0
7052893906,-4,-8,-16,-30,-21,-9,-14,-7
7052893906,-4,-1,11,10,-8,-8,-8,-3
7052900608,-4,6,0,1,7,-9,-3,1
7052900608,0,6,-9,12,19,17,-5,-1
7052908221,-7,-14,5,5,1,11,12,3
7052908221,-1,1,-6,-3,-1,-10,-6,1
7052923188,6,8,-3,-12,-20,0,3,-1
7052923188,0,8,2,4,14,-3,1,0
7052931406,-5,-9,-3,0,3,0,-4,-3
7052931406,1,2,-4,2,1,-5,-3,0
7052946238,1,-5,-15,-10,-5,12,1,-4
7052946238,5,15,5,0,-1,-7,-7,1
7052947176,-3,-10,6,-2,-7,-9,9,3
7052947176,-4,2,2,-3,-2,13,3,-2
7052968807,0,6,-1,5,1,-6,-2,-2
7052968807,-4,-8,-6,-3,-2,-1,-1,-2
7052969547,-5,15,-2,-14,-8,-11,6,-4
7052969547,8,8,10,9,-2,-5,-2,1
7052983157,-5,-6,-5,-6,-2,3,0,-1
7052983157,-8,-14,7,0,5,-1,-3,-2
7052991356,2,-6,-3,-2,1,-3,0,-1
7052991356,1,-6,-4,-2,2,6,-11,2
7053005599,2,3,3,-1,-1,7,26,-1
7053005599,1,-8,-8,-7,-7,-13,-16,-3
7053013790,13,5,0,-1,-1,19,3,-2
7053013790,-6,-2,2,6,-1,-12,-16,-1
7053028854,-22,-24,-1,-7,-2,11,3,-5
7053028854,-5,0,1,0,2,7,30,6
7053029499,1,-6,-2,0,0,-13,-2,0
7053029499,7,4,4,-2,-4,-4,-3,-1
7053043182,5,6,1,1,-2,0,-9,0
7053043182,-4,1,-2,-3,-2,-1,2,-5
7053051301,-5,-1,-1,0,-1,2,-8,0
7053051301,2,20,5,-1,-3,-1,11,1
7053065681,-29,-39,-8,-9,0,-5,-10,-5
7053065681,23,-2,-5,6,0,3,-2,1
7053073883,-21,13,2,-2,-5,-3,-6,-4
7053073883,-2,-2,6,-8,-11,-7,-5,-5
7053080675,25,34,9,9,6,0,2,11
7053080675,-6,37,-26,7,3,3,-3,-2
7053088090,1,-28,-16,-25,-5,-3,1,-1
7053088090,-5,-33,-2,7,-7,-6,1,-2
7053103176,-6,-16,9,10,6,6,-3,-4
7053103176,2,36,9,-29,-7,-3,0,2
7053111346,26,38,26,36,4,3,-1,7
7053111346,-28,-7,-42,-50,-11,-1,-1,-9
7053125688,26,50,14,11,9,1,-3,5
7053125688,-12,-62,0,1,4,-1,-3,-3
7053133780,-36,37,2,5,-5,-5,-4,-10
7053133780,6,8,18,12,7,0,3,11
7053148841,17,-79,-15,-7,-2,1,4,1
7053148841,-9,-20,-5,-16,-10,-2,-1,3
7053149516,6,3,-7,-15,-9,-10,-7,-3
7053149516,-19,-6,4,26,6,0,-2,-12
7053172056,-2,9,-8,-5,6,5,7,3
7053172056,18,29,12,16,8,6,18,9
7053172727,6,-23,-8,-20,-6,-4,-25,-9
7053172727,6,14,1,7,-5,-9,-4,2
7053185704,19,33,-6,-15,-23,-10,-11,-3
7053185704,-19,7,-8,-8,4,6,6,1
7053193859,-2,5,4,12,10,-4,16,6
7053193859,17,26,-4,3,12,10,4,4
7053208868,-22,3,8,5,6,3,-6,-7
7053208868,-6,4,1,10,3,-4,-3,-5
7053209547,10,-13,-10,-18,-6,-2,-1,1
7053209547,1,-16,-3,-18,-11,-5,1,-1
7053223103,3,-3,0,17,2,-11,-4,-1
7053223103,-14,-32,2,13,-5,10,0,-5
7053231292,-3,-23,11,6,26,1,3,0
7053231292,10,-15,-26,-8,-16,-7,-3,-2
7053245763,-4,10,5,4,-22,-7,-6,-2
7053245763,0,-5,2,-19,20,-9,-8,-4
7053253884,1,-4,0,47,1,8,8,1
7053253884,-6,4,5,0,25,4,2,-1
7053268761,-6,-1,1,12,-12,2,3,-2
7053268761,18,1,-5,12,-7,-3,-7,0
7053269636,-19,-21,-21,-11,1,-4,0,-4
7053269636,-2,-18,3,-34,-4,1,2,0
7053283200,-8,4,2,14,11,12,5,0
7053283200,-1,-4,-3,-10,-16,1,-3,-6
7053291366,-1,5,-3,-17,-5,0,-1,2
7053291366,-3,10,9,12,-8,-8,-8,-5
7053305737,-8,-7,9,-19,2,5,2,-2
7053305737,10,16,4,19,13,2,-1,2
7053313788,0,8,10,6,-1,-15,-9,-4
7053313788,-1,-15,-18,-3,-3,17,-2,1
7053328736,-3,2,-16,-11,-14,-15,-5,-2
7053328736,3,1,5,2,6,7,-4,2
7053329545,4,1,1,-7,-7,-3,-4,-1
7053329545,1,2,-3,10,-5,-7,4,-1
7053343119,-2,7,-3,-7,6,4,0,-1
7053343119,-9,8,9,-3,-7,-9,-2,-4
7053351357,-5,5,-3,-16,-7,-8,6,-5
7053351357,5,16,6,13,4,5,-32,-1
7053365603,1,3,-2,-5,2,-2,26,7
7053365603,-6,-18,-6,-17,-12,-13,-19,-6
7053373891,15,-6,0,2,-3,16,5,5
7053373891,-1,-1,3,6,2,-4,-12,-3
7053388840,8,-1,-3,-6,-1,-4,-21,0
7053388840,-10,-20,0,-2,-2,5,4,0
7053389522,-11,-16,0,-1,1,-10,4,-1
7053389522,-4,-9,-2,0,-5,1,0,-2
7053403181,10,16,-2,-3,2,0,-6,0
7053403181,-2,-6,-3,-2,-2,-6,4,-2
7053412072,13,7,-6,-6,0,10,-7,2
7053412072,-9,2,5,-1,-1,-11,11,-2
7053425683,2,-9,-7,2,-2,1,2,2
7053425683,5,8,-4,-4,-3,-2,-2,-3
7053434557,-4,3,-1,-11,-5,-1,5,2
7053434557,9,1,4,-3,-4,-2,4,2
7053448153,-19,1,-7,-5,4,-4,-1,-5
7053448153,0,-5,-13,0,-8,1,1,2
7053457053,-10,-19,16,1,-15,-6,-7,-5
7053457053,8,4,-21,-3,22,14,14,4
7053463109,10,1,20,9,6,8,3,0
7053463109,0,33,-24,-29,-3,-6,-4,-4
7053472049,-9,19,11,-2,-13,-4,-6,-2
7053472049,-20,2,-10,1,1,-10,-1,-5
7053485603,-9,-23,-4,3,-1,-1,1,1
7053485603,-12,33,10,1,-4,-1,-3,-2
7053494541,16,-11,8,7,3,0,-1,1
7053494541,6,33,8,8,-1,2,5,2
7053508044,3,-14,-10,1,2,-1,-2,1
7053508044,-12,20,2,4,-4,-4,-2,-10
7053517065,-2,8,3,0,-2,3,1,3
7053517065,-24,-5,-10,-13,-13,-11,-9,-13
7053523159,10,15,10,-1,-3,-1,-2,-3
7053523159,20,33,-1,5,21,14,11,11
7053532050,-24,-18,-13,4,-5,-5,-2,-4
7053532050,4,26,-5,-14,-5,-2,6,5
7053545658,-19,12,-2,3,-8,-9,10,-8
7053545658,3,16,14,-2,-19,-3,-26,-4
7053554553,19,13,-30,-10,25,10,7,1
7053554553,2,-18,7,1,-8,-4,5,4
7053568211,9,19,-9,-23,-9,5,-4,1
7053568211,23,4,13,35,4,-6,10,7
7053577021,-21,7,6,7,-13,-2,0,4
7053577021,-1,15,-3,-16,12,3,-4,-7
7053583171,-5,-14,-5,-7,10,0,5,2
7053583171,12,7,-4,-12,-6,-6,-6,-2
7053592063,9,-21,-1,-2,-22,-21,-3,1
7053592063,5,-13,15,30,4,22,0,-3
7053605659,-2,-18,-27,-22,10,-15,-10,-2
7053605659,-15,-31,4,0,-6,15,5,0
7053614537,0,-12,-8,-29,-11,-10,-3,-9
7053614537,8,-18,0,26,7,-3,3,8
7053628207,-9,9,5,7,-2,-3,-4,-5
7053628207,-5,-38,0,26,-1,1,-1,-1
7053637043,-10,-10,-9,2,12,0,-8,-12
7053637043,-1,-12,-5,-17,3,2,10,2
7053643036,7,10,-2,18,18,-9,-9,-1
7053643036,4,-5,-15,0,-8,12,7,-2
7053652068,14,30,15,21,-6,-4,-1,1
7053652068,-1,-1,-2,-4,6,-6,-9,-1
7053665680,-13,0,8,-24,-11,-2,-3,-8
7053665680,-16,-27,-7,-4,4,-10,-2,-4
7053674530,8,15,-10,-9,4,15,-3,-2
7053674530,5,-1,11,21,2,-6,-8,-4
7053688186,-6,-14,-12,-16,-11,2,0,2
7053688186,2,-7,-3,-7,-6,-7,6,-5
7053696999,8,7,2,-5,0,-2,-29,6
7053696999,-5,8,6,-5,-13,-12,-2,3
7053703182,0,-8,2,5,-10,2,-8,-5
7053703182,-4,-3,-3,-4,2,0,9,1
7053712024,-2,-1,-2,8,13,-13,3,-3
7053712024,1,-17,-3,-7,-7,18,1,-4
7053725684,-13,-1,10,15,2,14,0,1
7053725684,8,-10,-11,-21,-3,-3,-6,2
7053734515,-9,6,-2,2,4,2,8,0
7053734515,8,6,2,0,-3,-32,2,2
7053748186,-4,-3,-7,-6,-13,15,-10,-8
7053748186,-14,-10,3,0,3,-11,4,0
7053757062,4,-11,3,3,7,52,13,-1
7053757062,9,0,-1,-2,-6,-15,6,5
7053763205,-8,-11,-6,-1,-3,-7,-5,-2
7053763205,1,-7,2,-4,1,-12,-14,-3
7053772002,-22,-6,3,5,6,9,4,-4
7053772002,-6,-10,-2,-5,-9,-7,-8,-4
7053785659,16,5,3,4,0,-12,3,5
7053785659,16,20,7,3,6,16,4,8
7053794521,7,4,-6,-7,-8,-13,-5,-4
7053794521,-14,0,5,2,3,5,1,-4
7053808038,-3,-1,5,5,-1,0,5,0
7053808038,-18,-16,-14,-13,-2,0,-1,-5
7053817043,-5,11,-2,-1,-5,-7,3,-2
7053817043,10,-17,17,17,0,-1,1,7
7053823171,30,36,-16,-20,-2,4,4,3
7053823171,-28,14,3,9,5,3,-5,-9
7053832008,-18,-40,-5,13,13,1,5,-1
7053832008,-4,-25,-8,-23,-7,10,-4,-4
7053845686,-13,-80,-11,-9,-5,-8,-3,0
7053845686,25,41,9,-5,-9,-7,-2,1
7053854569,9,58,15,22,0,-8,-5,-1
7053854569,-30,-97,-8,11,7,5,0,-8
7053868189,-2,15,-16,-16,2,1,6,3
7053868189,-5,-53,-11,-10,-10,-10,-3,-3
7053877059,33,29,11,-11,2,2,5,11
7053877059,0,6,-3,1,-4,-4,-6,-5
7053892083,-3,80,13,16,0,-1,-1,0
7053892083,-6,-84,-4,-4,9,9,3,0
7053893546,-1,-11,-4,1,-8,-2,-1,1
7053893546,-2,47,-1,11,-4,-6,1,-1
7053905636,2,32,-4,-5,6,3,0,0
7053905636,-11,-18,-11,-20,-4,-6,-2,-6
7053914546,7,-50,-7,-7,-13,-6,-8,-6
7053914546,14,79,0,-37,-8,1,3,0
7053928189,-25,-112,-13,19,16,3,1,-4
7053928189,3,39,21,31,7,4,11,4
7053937044,-4,11,1,8,3,-14,-12,4
7053937044,17,-2,-7,-7,-8,19,-1,-3
7053952003,-9,31,6,-8,-14,3,-2,-5
7053952003,11,1,-4,-4,9,-1,-5,4
7053953492,-14,10,-6,-30,-35,-2,10,-4
7053953492,-25,10,-2,18,22,-1,2,0
7053965571,21,-6,14,7,0,-41,-5,-1
7053965571,-5,15,-16,-33,-33,25,-6,-5
7053974551,-7,-11,12,20,11,-2,1,0
7053974551,3,-23,-6,-24,7,9,1,0
7053988079,-3,3,10,29,30,13,2,-2
7053988079,-2,2,9,33,-1,3,5,0
7054004541,7,-11,-13,-18,-26,-24,-15,-3
7054004541,15,5,-10,27,1,2,7,5
7054012065,-3,6,0,-41,-33,-3,2,0
7054012065,3,9,12,9,22,-12,-3,-1
7054013541,0,-21,5,12,5,21,6,0
7054013541,-6,-2,-22,-34,-17,-19,-1,-4
7054025632,3,6,-3,22,23,13,5,1
7054025632,7,5,4,3,-1,-12,-4,0
7054034517,-11,2,21,28,25,9,3,-3
7054034517,2,5,-3,-5,-12,-12,-10,-2
7054048192,5,-13,-4,10,-9,9,2,4
7054048192,-7,-8,-16,-6,-16,-22,-15,-9
7054057019,11,3,-12,-10,17,2,10,9
7054057019,-4,1,11,2,-4,16,-16,-4
7054071966,-1,-9,-4,-5,-4,-5,0,-4
7054071966,-12,2,12,7,1,-9,-21,0
7054073517,-3,4,-22,-24,-10,-10,0,-3
7054073517,2,6,7,6,0,-7,14,-5
7054085711,-13,9,-1,-2,0,21,-20,1
7054085711,0,-2,3,-6,-4,-17,-9,-7
7054094498,-22,-13,-10,-8,-4,15,4,-5
7054094498,6,0,3,-1,2,-8,7,0
7054108848,4,10,10,6,-5,-12,-3,-2
7054108848,3,4,-8,-6,1,-36,5,2
7054115656,1,5,1,-7,-3,51,-8,-5
7054115656,0,-10,4,9,1,-25,-6,-2
7054132061,9,-11,-3,-3,2,13,-3,0
7054132061,-1,2,3,-1,-4,-2,-2,1
7054133543,1,-10,-5,-8,-2,7,6,1
7054133543,-14,-32,-7,0,8,43,2,-9
7054145618,4,3,4,0,-13,-45,-18,-1
7054145618,11,-1,-4,-9,-2,23,21,3
7054154520,-21,-5,-1,5,7,-14,-12,-4
7054154520,-9,4,8,2,-5,-6,-2,2
7054168702,-4,-9,-4,-5,-1,-7,6,0
7054168702,9,-14,-8,-2,0,18,1,0
7054175600,-9,4,8,-6,-6,-28,3,1
7054175600,2,23,9,18,9,5,-5,5
7054191947,16,10,-12,1,-7,2,7,-4
7054191947,-24,-21,1,-26,5,0,2,-1
7054193497,16,11,7,21,19,9,6,2
7054193497,10,51,-2,-1,1,-11,-3,1
7054205657,1,17,10,-13,-8,6,2,3
7054205657,-13,-42,-2,6,6,4,-1,-2
7054214495,19,52,35,11,-4,-15,-5,1
7054214495,-13,-46,0,12,-11,5,0,2
7054228661,14,-5,-24,-33,1,3,15,11
7054228661,-19,36,18,-13,-2,5,-6,-11
7054235673,3,24,10,44,19,1,4,3
7054235673,32,44,10,-35,-19,-16,-4,6
7054252062,7,33,8,20,17,7,1,0
7054252062,9,-97,-14,7,-3,1,3,5
7054253616,-15,67,-33,-18,-6,-4,-13,-7
7054253616,-7,-15,8,-3,-15,-9,-11,-11
7054273543,-8,-16,21,15,6,0,1,-4
7054273543,-3,-1,-6,-7,-4,3,3,6
7054281995,8,-2,-9,-24,-7,-8,-7,-3
7054281995,5,-24,-14,18,0,2,0,4
7054288784,-16,5,21,-5,-21,-4,-9,-6
7054288784,10,4,-2,6,7,-8,3,1
7054295563,-6,-23,-22,-26,-18,6,-7,2
7054295563,-12,29,0,3,28,-6,-8,-2
7054311983,-1,11,-6,6,-15,-7,-5,-4
7054311983,0,53,6,9,-15,16,2,-2
7054313494,2,-29,-9,-9,11,-10,1,-3
7054313494,-10,5,6,1,-6,-1,1,-7
7054325675,-11,-37,-11,-24,3,-7,7,4
7054325675,17,2,0,-3,-10,4,-3,1
7054334482,-8,-38,0,-4,-3,-5,2,-2
7054334482,-6,-40,-6,7,-9,-5,2,-3
7054348724,-7,-14,-16,13,-12,7,-7,-8
7054348724,-1,21,10,-19,-10,-13,0,-3
7054355682,7,-9,1,30,25,9,7,-1
7054355682,-3,-2,-7,-11,10,7,4,2
7054372056,-11,-8,13,25,-2,-5,-3,-6
7054372056,8,24,-23,-33,2,-11,-10,2
7054373506,-4,-21,-15,-6,-5,-6,-6,-6
7054373506,-8,-15,-8,-19,-3,2,1,-2
7054385559,1,8,-9,-9,-1,3,9,-1
7054385559,4,8,12,38,4,-6,-6,-3
7054394525,-2,-3,5,-7,-8,-3,13,5
7054394525,-9,-9,-9,-8,-4,1,-24,-5
7054408824,2,-16,-7,-13,-7,-4,2,2
7054408824,-4,1,-6,16,13,-2,0,1
7054415629,7,3,-1,-15,-4,3,-9,0
7054415629,1,13,12,4,0,-3,3,1
7054432012,1,1,-3,7,-3,-20,-6,1
7054432012,-14,0,-8,-8,0,17,6,-7
7054433517,4,-6,4,-8,-10,-5,-5,1
7054433517,7,-6,7,24,4,-10,0,7
7054445597,-6,7,-1,-2,11,12,8,2
7054445597,2,4,-4,0,1,2,-3,-1
7054454509,-9,-15,-5,4,-5,-8,2,-3
7054454509,8,0,-6,-12,-9,-6,0,-4
7054468818,-9,-8,-11,-5,7,9,-1,-2
7054468818,-6,1,0,4,1,10,5,-2
7054475601,1,2,7,1,-3,3,-10,-4
7054475601,4,6,-4,-6,3,15,14,4
7054491958,-6,-2,0,-4,-5,-2,-3,-2
7054491958,8,-5,-2,1,-1,-11,-1,6
7054493483,-4,-8,-5,-6,-7,-19,-2,-10
7054493483,-10,-5,-8,-2,-2,11,-23,2
7054514485,0,-2,4,1,5,-1,2,-4
7054514485,6,-2,0,-3,-6,-4,-8,-2
7054516022,-12,-10,-4,-5,-2,-1,25,3
7054516022,16,18,7,-1,-4,-9,-10,-6
7054529303,-26,-50,-8,0,2,-8,-1,0
7054529303,2,-4,0,0,1,10,-8,-4
7054535616,-1,11,5,-1,-3,-2,-4,-2
7054535616,10,7,-1,2,0,1,8,1
7054551028,19,12,-8,-9,-3,-1,-3,3
7054551028,-7,-5,0,-5,-4,-6,5,-2
7054559483,-8,-48,-11,14,7,9,1,0
7054559483,-2,62,-2,-3,11,5,10,2
7054574379,11,16,3,-5,-5,-2,-5,-4
7054574379,6,-75,11,19,-1,-6,-7,1
7054575966,-7,17,-2,-15,-20,-7,-9,-4
7054575966,-7,73,-30,-6,12,-1,4,-2
7054588789,-20,-28,-6,29,-1,4,-3,-1
7054588789,5,-40,-11,-40,-13,-7,-1,1
7054595647,16,67,-10,-6,10,3,2,7
7054595647,-21,-70,18,23,-6,-9,-6,-10
7054612064,12,81,-1,-36,-10,4,-2,-1
7054612064,-2,108,7,35,25,8,27,4
7054613523,26,-20,16,10,-6,-5,-28,5
7054613523,-19,-9,-5,-28,-2,-2,-5,-4
7054625628,-7,27,5,5,-4,2,0,-4
7054625628,-5,26,9,11,3,-4,-1,-1
7054640657,5,0,5,-8,-1,1,7,3
7054640657,17,13,13,6,-4,-2,9,5
7054648837,18,-6,11,-10,-6,-16,-18,-4
7054648837,-12,-11,-20,-21,0,3,-4,-4
7054655660,-20,-9,-2,6,-8,6,12,2
7054655660,-3,-21,6,-1,-7,-11,-22,-8
7054671925,4,14,16,54,4,-7,-6,3
7054671925,-1,21,-30,-37,10,14,5,-3
7054673475,-8,-9,-11,-11,-12,-4,-1,-11
7054673475,-6,-12,-8,-5,-3,-8,-11,7
7054685616,0,-32,-3,-20,1,10,5,0
7054685616,10,-2,16,29,-4,-14,-9,1
7054694499,-15,-20,2,7,6,10,17,-10
7054694499,-5,-46,-24,-41,-6,-8,-10,-2
7054708748,-3,-13,2,-6,-2,0,4,-1
7054708748,2,-22,-5,16,-1,20,12,8
7054715609,13,18,3,14,8,-14,-2,4
7054715609,13,7,3,25,10,4,6,2
7054732020,-3,-10,-5,-51,-14,-5,-4,0
7054732020,-3,-6,-14,24,10,-4,4,-1
7054733462,-4,2,-5,-22,-12,-6,-10,-4
7054733462,0,10,4,-5,-2,5,-5,-3
7054745670,-6,-6,11,54,6,2,2,1
7054745670,-1,11,-16,-41,-14,-14,-12,-3
7054754457,2,7,-10,-20,5,0,-13,-7
7054754457,-5,-20,15,20,-6,0,19,2
7054768746,-8,-2,-14,6,15,-4,-4,-5
7054768746,-6,2,7,-11,-21,-6,-12,-5
7054775616,-3,-6,1,17,0,-11,-4,1
7054775616,7,2,-2,8,6,8,10,-1
7054792001,-8,-1,3,-5,-1,3,-3,-4
7054792001,0,10,8,3,0,-2,4,0
7054793491,6,13,6,-9,0,-2,7,2
7054793491,1,-3,-6,-8,-5,-5,-4,0
7054805604,4,-10,6,4,13,13,10,6
7054805604,-9,13,17,4,-4,-28,-2,-2
7054814513,-6,-18,-11,-6,-11,6,-15,-2
7054814513,-12,3,-8,-1,2,-3,22,-4
7054837012,5,7,-11,-7,16,38,2,0
7054837012,-8,-8,4,1,-12,2,5,0
7054838504,-4,-4,9,9,5,-26,-7,-1
7054838504,5,-11,-3,7,13,34,30,-5
7054852053,-18,-6,-4,-10,-11,-22,-10,8
7054852053,3,-20,2,1,1,2,-8,-8
7054853491,-3,-13,-1,0,1,-12,-8,-7
7054853491,1,-11,-1,-4,-7,-4,-23,8
7054874477,5,-7,-2,-9,-5,-6,7,-5
7054874477,-2,0,-3,0,5,3,-2,4
7054875966,8,-11,-2,0,-4,3,3,-2
7054875966,-6,12,7,3,-6,-10,-3,-2
7054888163,12,4,0,-5,-6,1,-7,0
7054888163,-7,0,-13,2,5,-2,0,-8
7054896971,-19,0,3,-2,1,8,-5,2
7054896971,14,37,12,7,1,8,-1,1
7054911281,-49,-28,-33,-11,-7,-15,-5,-21
7054911281,25,53,22,-3,-8,-14,-9,10
7054918145,3,-64,-18,-4,2,22,13,5
7054918145,-9,66,-2,0,-4,1,-4,0
7054925619,-18,-74,-13,8,6,-1,6,-2
7054925619,3,7,-6,0,12,11,8,-2
7054934475,-7,3,-4,-24,-7,4,-1,-2
7054934475,2,25,-15,0,-10,-14,3,1
7054948797,14,30,25,-10,-8,-6,-28,-1
7054948797,0,-66,-30,6,-5,-2,-5,-6
7054955659,-7,18,6,5,8,2,1,2
7054955659,2,5,-2,-15,1,2,2,-2
7054971270,-11,-34,-2,6,-4,-9,1,-6
7054971270,8,28,30,29,-10,4,-2,6
7054978143,7,30,-29,-38,12,6,6,3
7054978143,-9,-33,0,11,-17,-15,-8,-5
7054985654,33,30,10,11,13,8,6,9
7054985654,-14,18,16,13,-8,-2,-13,-3
7054994449,10,26,-9,-6,0,-4,-1,-2
7054994449,-11,-5,-4,-1,16,10,-14,-1
7055008778,2,30,-4,-3,-7,-8,13,10
7055008778,-4,-12,-18,-23,-20,-34,-16,-12
7055015627,-10,13,26,9,8,30,7,-7
7055015627,4,-4,8,6,6,-6,0,3
7055031208,8,-7,-10,-15,-4,5,9,2
7055031208,-15,-19,-10,-4,15,-1,1,1
7055038150,0,7,11,26,-2,-8,-10,1
7055038150,-2,-51,-4,-5,30,-4,1,-2
7055054507,1,-10,14,23,-24,3,-7,-8
7055054507,-3,0,-14,-39,-14,-8,3,-2
7055055988,-13,-25,-5,15,8,3,0,0
7055055988,3,-29,-17,-39,9,7,-2,1
7055068755,-4,13,3,26,-27,4,10,-2
7055068755,16,13,-6,-7,10,7,-8,2
7055075585,-1,-15,13,33,14,-13,-11,-2
7055075585,1,-6,-13,-20,-42,-4,8,1
7055091291,2,11,-10,-27,26,-12,-11,-5
7055091291,-12,-23,9,-4,-16,7,5,-4
7055098117,14,7,-13,8,-8,-16,6,7
7055098117,-6,5,6,5,-1,3,1,-4
7055114450,3,9,-7,-22,-5,8,-6,-3
7055114450,-7,-12,-3,7,10,15,5,-2
7055115943,10,24,2,5,-2,-17,1,3
7055115943,-7,-23,-9,-15,-5,-4,-12,-9
7055128852,0,4,-13,4,13,7,6,5
7055128852,3,-2,1,-4,-7,-4,14,-1
7055135639,-6,-3,1,-15,-3,12,-2,-3
7055135639,15,16,10,16,-10,-9,0,-2
7055151335,0,9,4,-3,-5,-7,-8,-2
7055151335,-11,2,-5,0,11,5,-7,-3
7055158152,5,-3,9,-3,-10,-6,-8,-6
7055158152,-13,-9,-3,6,-2,-23,-11,-3
7055174487,-1,-2,4,0,6,22,12,3
7055174487,11,14,-2,-4,-1,-7,-10,-4
7055175966,4,2,2,1,-1,7,19,3
7055175966,-11,-4,3,3,-5,9,22,3
7055188079,0,10,-4,-4,2,-12,2,-5
7055188079,-2,-4,0,1,1,-11,-17,2
7055197007,0,-6,2,-9,-5,15,10,-2
7055197007,4,-12,1,1,3,15,-11,3
7055211305,13,-1,6,-1,0,-15,0,0
7055211305,-17,-13,2,6,7,2,3,-2
7055218106,-7,-7,-2,-3,2,7,-24,-2
7055218106,2,-11,0,5,-4,9,12,3
7055234427,-2,-3,1,-2,-3,-6,-9,-2
7055234427,0,-9,-4,-1,-1,2,-3,2
7055235964,0,-10,-4,-6,-5,-9,-7,-2
7055235964,1,-5,-4,0,-3,-7,-7,-4
7055248144,9,3,7,6,5,4,8,3
7055248144,-28,5,-11,-8,0,5,4,-5
7055256987,-4,9,-4,-5,-6,-5,1,-3
7055256987,10,10,5,0,-1,-3,-4,-1
7055271260,-11,-1,-3,13,6,-1,6,3
7055271260,4,-57,1,20,12,10,3,-2
7055278013,2,6,6,5,0,-4,-1,-5
7055278013,-5,62,-9,-12,-2,-5,-6,1
7055294437,15,14,2,-7,-5,-6,-10,1
7055294437,-10,-55,5,18,-6,4,6,6
7055296037,19,21,3,-10,-5,-5,-1,6
7055296037,-23,19,-1,-6,-5,-7,-4,-12
7055308112,-21,10,-30,-36,-3,3,-4,-2
7055308112,14,36,13,2,2,-1,-4,-3
7055316968,10,4,-2,-19,-2,0,14,2
7055316968,-35,-31,-11,22,0,-1,-22,-4
7055331302,2,20,9,6,-3,-6,-4,-1
7055331302,13,4,-6,-19,-8,-3,-2,-4
7055338032,-16,-8,6,13,-7,-4,-3,-1
7055338032,9,49,7,-10,15,13,15,0
7055353537,-2,-7,2,7,-1,0,-4,-4
7055353537,-6,13,11,7,0,-1,0,3
7055361981,-5,-33,-29,-12,-10,-7,-12,-3
7055361981,15,-8,12,5,-5,-4,3,6
7055368111,-7,2,-18,-23,-3,-9,-6,-3
7055368111,22,50,7,5,5,13,4,-2
7055376966,-21,-11,-10,-8,9,1,-3,0
7055376966,-7,-27,1,15,9,-3,-2,-10
7055391337,24,-13,9,7,-15,-3,-8,6
7055391337,13,24,3,-52,-27,-13,15,0
7055398094,-32,-30,-5,34,25,7,-4,-5
7055398094,5,-23,-5,5,3,3,-2,3
7055414449,1,-16,11,10,-1,6,9,1
7055414449,-3,-29,-8,11,13,-5,2,4
7055415958,27,10,-11,-21,-14,14,3,3
7055415958,-28,-22,3,3,21,-8,5,-2
7055428109,-9,-9,1,-1,2,-3,0,-6
7055428109,-8,-6,-14,-26,-6,-4,-4,-1
7055436951,1,14,-5,6,-7,-7,3,-1
7055436951,14,-10,-7,6,19,7,-1,0
7055451239,4,-8,-16,10,-4,-2,0,-3
7055451239,-20,-3,13,21,9,-6,-13,-11
7055458004,-4,-4,1,-11,-4,10,2,0
7055458004,10,6,-6,2,-5,-15,-10,-4
7055474483,-1,8,-3,-8,3,3,11,1
7055474483,0,-5,-6,5,-4,14,8,1
7055476000,11,1,-1,12,-1,-14,-9,5
7055476000,-8,-4,1,-16,-22,1,1,-4
7055488114,-1,-3,7,14,8,-5,-6,-4
7055488114,13,5,-3,2,4,-4,1,7
7055496979,-2,-1,4,6,7,4,10,0
7055496979,7,-10,-1,-10,-8,-4,-9,0
7055511308,-10,-1,-4,-9,-3,-5,-17,0
7055511308,-4,2,12,4,3,8,21,3
7055518123,8,17,-6,-9,-4,-17,1,-2
7055518123,5,5,-14,0,-2,15,6,-1
7055534464,-7,-2,5,-3,2,2,-35,1
7055534464,-2,3,-7,-2,-8,-16,-19,-5
7055535988,-5,1,8,0,-1,-5,15,-3
7055535988,14,-9,-5,-9,-7,-5,-1,0
7055556911,-16,1,3,3,2,4,7,-4
7055556911,-4,5,-16,-2,-3,-4,-6,-1
7055558400,-18,-14,6,-2,0,12,-18,-6
7055558400,1,-9,-2,-6,-9,-16,-22,0
7055570583,3,-5,1,-1,-3,-12,19,2
7055570583,5,-1,2,3,-1,12,21,1
7055579479,3,6,8,-5,-3,-14,5,-2
7055579479,0,-8,-1,-2,-4,-3,4,0
7055594468,2,-13,-2,0,-1,5,-2,0
7055594468,-5,-1,0,-2,0,10,4,-5
7055595938,11,-4,4,2,-5,-2,-6,-3
7055595938,-27,-11,3,0,-1,7,11,0
7055616939,3,-4,2,-1,0,7,10,-5
7055616939,-3,-10,-3,0,1,-12,-16,0
7055618412,4,2,3,-1,0,3,2,1
7055618412,15,-12,-1,-1,-8,-7,-1,3
7055630581,-10,13,0,1,1,2,3,-3
7055630581,0,3,-5,-1,-3,-3,-9,0
7055639479,-2,-15,0,-2,-1,-2,-6,1
7055639479,-10,18,9,1,-3,-2,10,-3
7055654332,17,13,10,2,-3,-6,-4,2
7055654332,-5,0,-12,-10,2,0,-8,-2
7055655951,-22,-8,-6,6,5,2,5,-7
7055655951,5,2,-1,1,-1,6,1,4
7055676854,21,25,10,17,-5,-3,-3,4
7055676854,21,-37,31,15,-2,-5,-11,2
7055678444,-36,37,-4,-32,7,2,-1,-9
7055678444,21,75,-17,-23,4,12,10,14
7055691258,-16,-46,-10,-31,2,-4,-4,-9
7055691258,6,-60,-26,-2,-10,-8,1,7
7055698072,-10,4,8,17,-13,-8,-15,-10
7055698072,-24,-22,-8,-30,-15,-16,-16,-16
7055714910,-13,17,9,26,0,3,12,3
7055714910,10,36,6,-14,13,7,-3,5
7055716395,2,-45,-9,7,10,6,-3,0
7055716395,34,-3,3,4,-3,1,-1,2
7055728100,-10,0,-8,1,-15,-7,-10,-6
7055728100,-12,5,6,1,21,-7,6,-2
7055736985,-5,20,2,12,-12,7,0,4
7055736985,7,-7,8,13,19,6,5,2
7055751281,-2,6,4,1,-2,-2,-7,0
7055751281,-3,47,0,1,-9,3,3,1
7055758103,9,24,-3,-15,-13,-35,7,-5
7055758103,-9,-16,2,7,-9,25,-48,-6
7055774462,-4,-11,-10,-15,14,4,4,4
7055774462,1,4,0,0,-12,-10,7,-4
7055775942,16,-33,2,7,8,14,2,6
7055775942,-15,-38,5,12,10,2,13,3
7055788077,13,-4,-11,-4,7,14,7,3
7055788077,3,1,-5,-2,-14,-8,-10,-4
7055796956,-7,-21,4,4,14,-4,1,-2
7055796956,-7,5,-7,5,-6,-5,6,-4
7055811262,3,-6,-16,-21,3,0,-3,4
7055811262,5,23,2,16,-9,0,2,-6
7055818075,-13,-13,-14,-23,-1,-4,0,1
7055818075,1,7,-3,2,-8,-10,2,-4
7055833733,13,4,-5,-6,2,-1,3,3
7055833733,-8,0,5,12,1,0,-7,-5
7055840534,-11,-18,4,-4,-20,-14,-13,-9
7055840534,-12,-16,0,-4,3,-5,1,0
7055848120,7,9,10,9,-8,10,14,0
7055848120,1,14,3,-4,11,5,-1,1
7055856943,-1,-24,-3,0,2,13,4,0
7055856943,-7,-12,1,-6,-5,2,15,-1
7055871256,-1,-8,3,7,3,-16,-2,0
7055871256,-1,4,-8,-7,-1,8,0,1
7055878111,19,20,-3,2,-2,-3,8,3
7055878111,-6,7,7,9,2,-17,-13,-5
7055893689,9,6,0,-2,-5,-2,-26,3
7055893689,-41,-20,-12,-6,-1,-7,-1,-5
7055900621,16,5,4,3,-4,-13,3,10
7055900621,12,21,4,4,9,34,9,3
7055908114,-18,-8,0,0,-1,3,-8,-12
7055908114,4,-16,-13,-9,-5,-2,13,2
7055916916,-5,15,-1,0,-2,6,-6,0
7055916916,0,2,9,6,-1,-43,-7,-9
7055930576,4,-3,-5,-2,3,44,20,13
7055930576,2,-6,-1,3,-2,-13,-15,-2
7055939476,6,14,3,1,0,16,5,-2
7055939476,9,6,0,-1,-1,-8,13,1
7055953788,-28,-22,-5,-3,-10,-22,-13,-14
7055953788,14,-1,0,-5,-2,-5,-3,1
7055960584,1,11,1,1,5,1,0,4
7055960584,-11,-18,-4,-5,-6,0,-17,-6
7055976845,-7,1,3,1,-2,-16,-1,-4
7055976845,-4,-6,3,1,1,10,4,2
7055978444,12,-6,-5,-4,-4,-9,-6,1
7055978444,-3,1,3,0,-1,5,7,5
7055991221,-4,0,-4,-1,-1,-5,2,-6
7055991221,6,-5,1,0,5,6,2,1
7055998059,-16,5,1,-2,-4,6,-6,1
7055998059,0,-10,-3,0,-4,-10,-2,-2
7056013799,-7,1,7,4,-2,-5,3,0
7056013799,-2,4,-12,-17,-4,-4,-12,-3
7056020552,9,7,6,10,8,-1,-3,-2
7056020552,1,-8,-18,-19,-2,11,7,5
7056036220,14,29,16,11,-1,-8,-4,-5
7056036220,9,2,-11,-11,1,7,1,5
7056036995,-25,-9,12,15,-17,-10,-5,-5
7056036995,-6,0,5,-14,3,-2,2,-5
7056051973,7,15,7,30,14,7,4,1
7056051973,-2,-28,-1,9,-10,-5,-5,-6
7056058062,3,20,-37,-34,12,3,1,-1
7056058062,21,8,19,16,-5,0,-4,6
7056074430,-39,-12,-7,-19,-8,-5,-3,-5
7056074430,3,15,20,38,-2,2,-4,-1
7056080553,-1,-3,-2,-24,-6,-10,-10,-9
7056080553,1,-18,-10,-15,-8,0,1,-3
7056096234,17,1,2,12,8,-1,3,4
7056096234,-9,8,-1,-6,2,3,3,-2
7056096936,-3,-23,15,32,-3,-2,-1,-1
7056096936,1,32,-10,-8,7,3,-1,3
7056111942,-1,2,-19,-29,-16,-10,-4,-4
7056111942,-13,-19,0,-3,6,-3,-17,-5
7056118019,1,-5,-7,7,7,10,-6,-1
7056118019,30,18,2,4,-9,-5,4,0
7056133068,-21,-12,3,0,1,0,-8,2
7056133068,8,6,3,-5,1,0,-5,-4
7056140486,16,3,7,2,-4,2,8,2
7056140486,-31,-36,-7,4,10,-7,-7,-6
7056156227,19,-2,-4,-18,-16,0,6,0
7056156227,12,-4,-3,3,8,6,-1,4
7056156985,-5,-3,5,-3,-6,0,0,-2
7056156985,-12,-11,2,3,3,-1,1,-1
7056171938,16,10,6,6,13,-1,3,-2
7056171938,-22,-8,-5,-23,-17,-3,-2,-3
7056178078,3,-9,-15,-10,-2,-23,-9,-2
7056178078,-9,6,0,8,-34,9,-16,-6
7056192979,3,1,8,7,34,10,29,3
7056192979,5,8,-6,7,10,-1,8,-6
7056200585,4,10,8,6,-4,-7,-1,5
7056200585,-27,-17,-4,-8,-3,1,-15,-11
7056216227,4,-18,-1,-6,0,8,-6,1
7056216227,11,15,3,5,-9,-8,10,3
7056216956,-9,2,-16,-2,14,4,2,-3
7056216956,-4,-20,1,5,-7,-7,1,-1
7056238764,-8,-16,-6,4,-2,0,-6,-3
7056238764,-4,10,-4,-16,-3,-4,2,3
7056239419,-3,2,-7,-8,-8,-1,-5,-7
7056239419,11,8,11,14,8,-21,7,4
7056253082,4,-3,-14,-15,3,25,10,-1
7056253082,-35,-5,3,-8,-9,-14,-2,-7
7056260513,0,-9,4,5,1,2,21,3
7056260513,2,20,-7,-4,6,5,10,-1
7056276253,12,15,6,4,-9,-21,-11,4
7056276253,-1,4,2,-4,-9,11,-9,-8
7056276969,3,-2,2,0,3,3,-21,2
7056276969,-8,10,-3,-6,3,-2,10,-2
7056291915,2,1,-3,-2,-16,-7,-25,2
7056291915,11,0,-3,3,6,1,10,2
7056298009,-15,-9,3,-5,0,9,-2,1
7056298009,12,-2,-11,-7,-2,-15,-13,-3
7056313076,-9,2,-5,-3,-10,-2,-15,-9
7056313076,7,2,6,5,8,-7,8,4
7056320544,3,10,1,-2,-2,10,1,-3
7056320544,-14,-6,0,0,0,-19,-7,0
7056336251,-8,-9,-2,0,2,28,21,1
7056336251,6,-4,-4,-1,0,-6,-6,4
7056336960,4,-5,2,-1,-2,15,24,-2
7056336960,11,1,1,4,-1,-7,1,2
7056351908,-15,-3,-4,-3,-2,-22,-13,-11
7056351908,8,0,1,-1,2,8,1,6
7056358076,4,-8,-5,-6,-8,-14,-16,-2
7056358076,-12,4,3,1,5,19,1,2
7056373053,1,-21,-7,-1,-6,-12,-1,-3
7056373053,-20,-12,3,5,1,4,0,-5
7056380542,-2,-14,-6,-1,-1,-9,-2,-5
7056380542,16,20,6,-1,2,13,6,8
7056396234,15,-4,0,0,-4,-4,1,6
7056396234,4,-30,2,2,-4,-6,-8,-4
7056396957,18,96,-2,-7,-3,2,-1,3
7056396957,-33,-4,1,-1,3,6,3,-8
7056411953,4,-22,5,11,-11,-13,-10,-3
7056411953,-18,-76,-7,-10,7,-1,-9,-2
