timestamp,emg1,emg2,emg3,emg4,emg5,emg6,emg7,emg8
7131704212,1,14,4,-8,0,-2,-2,-2
7131704212,2,-1,-2,13,0,-1,1,-2
7131710967,0,-10,-3,0,1,-3,0,-3
7131710967,-3,5,-8,-13,-6,5,-6,-2
7131711931,-3,-3,-2,0,2,-6,1,1
7131711931,-4,-7,-1,-11,-6,-5,0,-1
7131712636,3,9,2,-3,-6,-4,-7,0
7131712636,6,7,3,2,-2,-2,-3,0
7131716867,-6,-10,-4,3,4,4,8,-6
7131716867,-4,-3,-1,-1,-1,3,-11,2
7131720651,-5,5,2,-1,0,0,4,-2
7131720651,1,-4,-2,-3,-3,-7,0,-3
7131731309,0,-11,0,0,-3,1,-7,-4
7131731309,3,15,6,7,2,-3,0,0
7131739004,0,-14,-16,-10,1,1,-3,1
7131739004,3,-9,-2,2,0,0,6,0
7131746360,-5,4,-3,0,-3,-3,-10,0
7131746360,-3,3,10,2,0,1,-1,-4
7131764214,-5,-6,0,0,-3,-2,-1,-1
7131764214,6,-2,-3,-1,1,0,2,-2
7131767741,-2,5,0,0,-1,1,3,0
7131767741,4,1,4,-6,1,2,14,1
7131815763,13,20,-3,-1,-1,-2,-12,4
7131815763,-13,-2,0,-2,0,-2,2,-5
7131816629,6,-16,2,1,2,1,-3,-2
7131816629,0,15,0,-6,-3,-2,2,1
7131817541,-4,-1,0,-4,0,-1,-1,-3
7131817541,-16,-15,-7,-6,-5,-3,0,1
7131820631,-6,-1,-3,1,1,8,-8,-4
7131820631,7,3,-5,0,-3,-19,-15,-8
7131827412,-10,1,2,1,1,9,3,2
7131827412,18,-14,-6,-5,-2,4,-1,6
7131835600,2,15,2,3,10,6,4,-1
7131835600,-3,0,0,-2,-5,1,7,2
7131842407,23,30,15,6,3,-2,-7,6
7131842407,-57,-65,-22,-8,-4,-5,-5,-18
7131858162,9,22,9,4,-4,-7,2,3
7131858162,-12,-49,-5,-2,-2,-1,-8,-4
7131864879,10,-26,12,10,7,4,5,0
7131864879,25,19,9,-6,0,1,-1,4
7131872436,24,44,16,32,-5,-1,0,5
7131872436,-26,-17,-28,-9,8,6,7,2
7131887444,5,12,10,-15,-2,-2,4,-3
7131887444,6,-28,-22,-16,-1,1,-2,2
7131895658,-5,-3,-9,-28,-13,-5,-4,-2
7131895658,5,33,71,75,-28,-4,-1,-1
7131902343,-3,-5,-40,3,58,10,5,0
7131902343,11,49,-1,9,16,10,4,3
7131918157,-7,-8,-15,-15,-7,-9,-1,-3
7131918157,-3,-38,-11,-10,-4,0,-2,0
7131924931,-17,2,22,9,-21,-6,-3,-6
7131924931,3,50,17,-1,-16,-13,-3,1
7131932365,15,-14,-20,-7,4,2,0,2
7131932365,6,59,12,7,19,9,4,1
7131947469,-2,-7,2,-5,-18,-5,0,5
7131947469,-30,-12,-24,-9,7,-10,-8,-11
7131955683,9,43,7,-9,-25,-15,-13,-7
7131955683,-18,70,-7,-12,-5,-3,8,-2
7131962465,-6,29,-19,-15,-5,2,-48,-4
7131962465,17,14,14,22,23,15,17,-1
7131978634,-6,-35,7,10,38,-1,11,9
7131978634,24,-8,0,-10,-32,-3,-25,-8
7131984960,-9,-63,-33,-62,-35,-18,7,4
7131984960,11,-26,27,68,26,14,-4,2
7131992493,-9,-37,0,-31,-1,7,2,-8
7131992493,6,-57,11,67,40,-2,6,2
7132007456,-5,-42,-2,-27,12,2,12,0
7132007456,11,0,-12,-56,-30,-34,-16,0
7132015534,-36,-36,-1,-26,-53,19,4,-9
7132015534,4,-14,4,-16,17,16,13,9
7132022486,11,17,4,41,29,-5,6,0
7132022486,-12,-14,13,-1,-13,-4,-1,-9
7132038170,-2,-10,-10,-30,-19,-25,-24,-1
7132038170,-5,-19,-25,-46,-25,-1,8,-1
7132044876,-26,-28,-7,-9,-8,3,-2,-17
7132044876,2,11,10,-9,0,6,10,3
7132052362,3,8,-4,31,-6,3,-2,0
7132052362,-15,-22,-1,-27,2,-12,-15,-12
7132067475,6,9,2,19,20,10,14,3
7132067475,0,14,0,2,-24,-10,-5,-6
7132075549,-5,8,-3,14,14,3,-5,4
7132075549,9,32,-5,-5,3,-11,8,1
7132082434,6,6,-10,7,-10,-2,6,0
7132082434,15,3,1,-4,-11,-14,-10,9
7132098791,1,8,-1,27,28,25,12,-2
7132098791,-2,3,-18,-17,6,12,3,-1
7132105017,5,15,9,3,-29,-9,-13,0
7132105017,-1,7,-14,0,9,0,5,2
7132121349,-16,-10,0,-4,11,-13,6,-7
7132121349,3,-20,-14,-4,-5,-1,2,-3
7132127450,-9,-2,3,-5,-13,-5,-6,-1
7132127450,-8,-4,3,9,14,11,8,0
7132136339,-2,-5,-1,7,-2,-9,-5,3
7132136339,-1,4,3,-2,-6,8,4,2
7132142477,6,8,8,13,2,-5,-7,-3
7132142477,3,1,-11,-2,5,-9,7,3
7132158806,-3,-8,3,0,-4,24,21,-2
7132158806,6,-10,-3,1,4,0,4,8
7132164977,5,3,2,4,0,-11,-14,1
7132164977,-3,-4,-4,-4,-13,4,-33,-7
7132181326,-17,-9,-1,-3,1,-10,11,-2
7132181326,9,-4,-3,-1,1,6,-3,5
7132187457,-4,-2,-5,-3,-7,-4,5,1
7132187457,0,-9,-1,-4,-5,-4,4,-4
7132196280,-2,-4,3,-2,3,-1,-15,-2
7132196280,-1,1,1,5,0,-5,-16,-10
7132202388,-9,-12,2,-3,-4,4,31,7
7132202388,8,-14,0,-3,-3,7,3,-1
7132218912,9,0,-3,17,4,-4,-1,1
7132218912,-10,9,11,0,1,-5,-5,-6
7132224949,1,-2,-11,-3,-2,6,-1,-1
7132224949,23,13,5,7,-3,-2,3,7
7132241312,-18,-33,-17,-27,-2,-5,-5,-3
7132241312,-4,68,-5,-13,-9,-8,-12,-6
7132247243,-31,-47,-5,-7,-7,-8,-6,-14
7132247243,3,59,4,-8,-2,12,4,1
7132256391,-1,-32,-33,20,17,-3,-10,-11
7132256391,0,41,35,4,0,-1,4,3
7132262372,68,118,53,22,-7,0,-2,13
7132262372,-47,2,-52,-55,-34,-15,-8,-11
7132279054,-5,57,9,-34,14,-1,-3,-1
7132279054,-17,-13,-8,8,-8,-1,-6,-11
7132284846,-12,-13,-39,33,9,4,2,-5
7132284846,24,25,30,9,5,9,3,6
7132301341,25,56,25,51,-6,-14,-1,12
7132301341,25,-43,27,-39,-6,3,3,8
7132307444,-72,-101,-78,-18,11,1,-12,-25
7132307444,-12,-5,12,10,2,-2,8,-4
7132316343,4,-54,-19,-11,-8,2,0,4
7132316343,4,-2,7,15,1,-2,5,4
7132322391,11,-5,8,3,1,-1,-2,2
7132322391,-10,-32,13,7,13,4,-1,-5
7132338833,-1,32,24,8,-8,-1,-4,-4
7132338833,17,-7,-25,0,6,2,-4,9
7132344913,20,32,10,-54,-32,-16,-1,7
7132344913,-1,-2,9,66,28,14,2,0
7132361291,7,9,8,-1,-3,-3,1,4
7132361291,-15,4,-30,-36,3,3,-5,-8
7132367444,-3,-1,1,-17,2,5,8,-5
7132367444,2,-15,-1,-27,-30,-22,-40,2
7132376318,0,-18,-14,-38,-5,10,2,-2
7132376318,-7,-20,-8,16,11,5,8,1
7132382433,-1,11,13,14,-5,6,2,0
7132382433,3,-21,0,-6,21,-3,3,-3
7132398834,-1,17,5,4,-1,-10,-6,-6
7132398834,-1,2,-8,10,-12,-13,-7,-2
7132404866,-2,7,21,0,4,13,4,-3
7132404866,-2,-6,-12,-4,-20,-10,-5,-7
7132421362,-7,-11,5,-13,3,1,3,1
7132421362,-2,-7,-2,6,-4,-10,1,-3
7132427440,11,25,23,23,14,-2,-3,4
7132427440,7,-1,-20,-3,-8,-14,-2,1
7132436357,-12,-4,10,21,13,18,0,-2
7132436357,-5,-5,-6,-11,0,4,-2,-5
7132442436,-2,-2,-2,4,-3,-10,11,-4
7132442436,2,17,6,-9,3,-13,32,8
7132458814,5,0,-21,-6,-3,20,13,-1
7132458814,3,5,2,4,1,-8,-19,3
7132464834,-5,-13,-6,-3,-7,6,-9,-4
7132464834,-2,-7,5,4,2,3,6,1
7132481272,0,1,2,14,7,-8,-1,-4
7132481272,-3,-9,-3,3,5,18,21,3
7132487335,-3,1,-9,-3,2,-9,-14,-6
7132487335,-13,-11,-3,-2,2,-3,7,4
7132496419,10,-1,-5,-8,-5,17,10,3
7132496419,-5,-3,-4,0,-3,-14,-12,-7
7132502398,6,0,0,-1,-2,2,21,4
7132502398,0,-1,8,5,6,10,-18,-1
7132518890,-4,-11,-6,-5,-11,-19,-16,-5
7132518890,-4,6,8,2,-3,-3,10,-5
7132533108,1,-4,-1,-1,0,3,2,7
7132533108,-6,-11,-3,-2,2,3,-8,-6
7132539849,-1,-6,0,-5,-9,-11,-1,1
7132539849,3,-2,-6,-2,-7,-2,-12,1
7132547419,-6,-2,6,0,3,-1,-18,-2
7132547419,-6,-2,-3,-2,-3,16,24,1
7132556310,1,5,1,-4,-4,-11,-6,-4
7132556310,-7,-9,-4,4,4,-2,6,1
7132562412,0,5,-1,-1,-2,-2,-7,-3
7132562412,6,5,-2,1,6,7,4,-1
7132578764,3,-6,-3,0,-3,-6,0,-5
7132578764,-2,-1,-3,1,0,0,20,4
7132584971,-8,5,9,2,3,1,3,1
7132584971,6,-2,3,6,-1,-6,-6,1
7132599821,10,-3,-6,-13,-3,8,-6,1
7132599821,-14,3,-2,-4,-5,-5,-11,-6
7132607463,-3,-10,2,20,-1,0,-3,-2
7132607463,-5,-7,-5,4,8,3,0,-1
7132616313,-3,13,6,10,1,-2,7,4
7132616313,-4,7,-1,-19,-2,2,-1,-2
7132622447,22,28,4,30,0,5,3,1
7132622447,-4,-7,8,2,9,-1,-8,3
7132638808,-17,-21,-30,-11,-6,-7,-7,-6
7132638808,6,-3,13,8,5,6,-2,0
7132644828,-4,-12,-2,-9,-2,-3,4,0
7132644828,12,42,-16,-11,-4,-2,-8,-2
7132659909,-5,9,23,-13,-7,-4,-1,-2
7132659909,-40,-43,-31,6,8,0,4,0
7132667410,20,26,11,-3,-5,0,-4,3
7132667410,-18,36,10,1,-16,-9,-8,-7
7132676312,12,-90,-26,-16,1,-2,-1,3
7132676312,19,47,14,16,12,5,0,-2
7132689909,-9,31,7,-32,-4,-3,-1,3
7132689909,-27,-5,-50,-25,-1,0,-13,-16
7132698803,-16,21,18,14,-7,-5,7,-1
7132698803,21,-33,0,18,7,1,-4,3
7132704908,3,-16,-16,-26,-5,-5,-14,-3
7132704908,4,-44,19,44,11,10,15,7
7132719915,-2,39,-3,-25,-1,-6,-15,-1
7132719915,13,38,8,1,-8,-4,-4,3
7132727395,4,2,-10,-11,-10,-7,1,-5
7132727395,-25,-17,1,-20,-14,-11,-19,-3
7132736363,4,7,6,38,13,9,4,-1
7132736363,-6,10,-3,-21,-17,-15,-7,-4
7132749899,-8,-20,-2,4,-1,12,4,1
7132749899,25,-6,0,1,20,-2,0,3
7132758797,-11,-14,1,8,-7,-2,-7,-3
7132758797,3,-15,1,5,-3,-5,4,-1
7132764880,-2,-42,-8,-21,15,3,5,-3
7132764880,3,-9,19,50,-20,-8,-1,1
7132779945,0,-3,-4,-22,21,15,4,1
7132779945,5,-15,-15,-15,0,-6,-10,-2
7132787434,-4,-2,2,-8,3,-7,-5,7
7132787434,14,19,2,-4,-1,-4,4,3
7132810623,-11,-13,-1,2,-7,2,0,-7
7132810623,-8,-1,5,18,-2,-2,0,-6
7132811282,-8,0,-16,-18,-14,-10,-8,-8
7132811282,-2,-11,11,9,4,-1,5,-2
7132825626,12,29,-6,-25,-16,-11,-17,2
7132825626,-22,-30,-16,-19,-4,7,10,-4
7132826274,7,-4,-15,10,3,-2,2,-3
7132826274,-5,-2,6,9,10,3,-2,-7
7132839953,0,6,-2,-24,-5,0,-6,1
7132839953,-5,18,10,2,-8,-3,-4,-3
7132847413,-6,-16,4,7,10,4,4,2
7132847413,2,8,-3,-13,-17,-8,7,0
7132862381,3,11,-1,24,14,-7,-14,2
7132862381,1,9,12,-1,0,9,6,-2
7132869928,-8,-17,0,14,-2,1,6,-1
7132869928,6,1,6,-8,2,13,6,2
7132885577,-8,-3,0,3,-10,-18,-2,-5
7132885577,3,-3,-7,-10,1,-1,-43,5
7132886255,-7,2,3,-2,-9,-5,10,-6
7132886255,3,4,-8,-15,2,8,1,1
7132899888,8,9,5,6,-1,2,4,6
7132899888,13,-1,-12,-7,-9,-19,-1,-1
7132907429,-3,9,3,10,6,0,-8,-1
7132907429,-5,2,2,-9,-3,3,-2,2
7132922351,5,5,4,10,-2,2,19,-8
7132922351,-10,-17,-5,-3,-2,-10,-47,4
7132929932,-1,-4,7,2,-4,-4,-20,-6
7132929932,-2,-24,-13,-16,-3,4,16,-2
7132945622,-8,-20,0,2,-5,-6,4,-3
7132945622,2,-4,2,4,2,-1,0,2
7132946264,-5,-3,-1,1,2,8,-5,4
7132946264,7,12,-2,-8,-1,2,-9,1
7132959858,-4,10,2,7,1,-5,-3,0
7132959858,1,1,4,1,-5,2,26,-4
7132967435,-3,-1,1,-1,1,-7,-13,0
7132967435,-2,-11,-9,-9,-5,-4,8,-2
7132982407,1,3,8,5,1,7,3,3
7132982407,11,8,-7,-2,8,21,20,7
7132989881,4,19,6,13,3,-6,8,1
7132989881,-19,-1,1,22,4,-2,-5,-5
7133005541,7,2,-12,-13,-1,-6,-5,3
7133005541,-15,9,0,-1,10,9,3,-3
7133006297,2,-2,-4,-13,-13,-7,-1,0
7133006297,11,12,10,6,-7,-2,-6,-1
7133019918,-7,24,-7,-8,-5,-4,-7,3
7133019918,5,-61,-3,34,18,10,17,0
7133027401,1,32,-24,-36,-1,1,1,-5
7133027401,4,-3,-22,-19,-6,-6,-11,0
7133042447,-18,-1,1,5,-8,-4,5,-9
7133042447,7,52,23,-15,-17,-5,3,7
7133049904,-36,-102,-28,25,8,-3,-7,-15
7133049904,5,19,9,-3,-2,3,-1,1
7133065591,7,-17,6,30,-5,-5,-3,-2
7133065591,31,56,7,-27,-1,-5,4,10
7133066259,-16,86,11,12,5,4,-1,-3
7133066259,-18,-24,-9,-20,-7,-8,-3,-7
7133088086,-4,45,5,-5,14,11,-1,1
7133088086,0,-30,4,-11,-12,-5,-1,-9
7133088788,10,-23,-13,5,2,4,1,3
7133088788,2,0,-2,-1,-4,0,3,2
7133102377,-6,4,6,7,3,-5,-1,-2
7133102377,-2,11,-2,5,-3,-1,2,-4
7133109862,6,29,18,2,-1,1,-9,0
7133109862,-11,11,-3,40,-11,-12,-11,-7
7133125578,-4,-25,-6,-1,13,6,10,4
7133125578,-13,-2,-16,-2,12,-3,3,-4
7133126244,5,-22,4,-1,-1,7,2,0
7133126244,20,18,1,-2,0,1,-3,0
7133139876,6,-21,-1,-20,-21,-12,22,0
7133139876,-20,-31,-12,9,4,1,-20,-5
7133147411,4,13,27,-7,-18,-2,11,2
7133147411,-13,-40,-11,-27,16,1,-3,-5
7133162400,0,-27,-6,-14,1,15,19,2
7133162400,3,-11,8,17,1,-3,5,4
7133169891,1,-9,0,12,-4,-6,-2,-3
7133169891,-16,-30,5,-39,-27,1,-8,-6
7133185614,0,-17,-20,3,20,0,1,-4
7133185614,-3,8,6,-4,-26,-3,4,-4
7133186270,4,-3,3,-3,2,-13,1,2
7133186270,1,5,-6,14,1,-8,3,2
7133199939,-2,28,4,-21,-9,11,-13,-4
7133199939,-9,-8,8,0,-2,-3,17,-6
7133207512,3,-2,-5,-9,-6,1,2,1
7133207512,12,17,4,15,11,-5,-9,3
7133222429,-3,-9,5,-6,2,3,9,0
7133222429,-2,8,-19,-5,-8,-9,-14,-8
7133229902,-1,-9,-8,0,-5,-4,-1,-1
7133229902,-7,5,12,3,22,17,14,1
7133245439,3,5,6,8,-2,-7,-11,0
7133245439,4,13,-1,5,1,1,-4,-3
7133246356,-7,-9,-12,2,4,-2,-2,-1
7133246356,5,9,-1,-8,-2,-1,3,-2
7133267937,-3,-4,-4,7,-1,-6,-8,-3
7133267937,-9,-10,1,-10,-2,-1,14,-3
7133268812,16,15,-5,-7,-3,1,-5,3
7133268812,2,12,5,5,4,0,-4,2
7133282383,-11,-8,-6,-7,-11,-15,0,-4
7133282383,-9,3,0,6,4,1,-6,-4
7133289877,1,1,1,-2,-1,9,8,-1
7133289877,13,-2,-7,-10,-4,-6,8,2
7133305574,5,11,6,10,-1,2,-10,0
7133305574,4,-1,0,-2,2,-19,-2,6
7133306260,-8,-6,1,-4,2,18,0,-4
7133306260,-6,-23,-13,-7,-2,-3,-11,-5
7133319887,2,-16,-4,2,-4,-1,-1,-2
7133319887,-5,-23,-3,-1,4,-6,11,6
7133327404,-4,-10,2,-1,-2,8,0,-4
7133327404,-1,-3,0,0,-4,6,13,4
7133342341,1,6,4,1,-2,4,-1,-2
7133342341,0,-2,-4,-7,-4,-5,-10,-2
7133349890,2,5,-3,0,-1,-26,-3,2
7133349890,-5,7,2,1,1,24,9,-2
7133365648,3,-8,-1,4,-1,0,-9,1
7133365648,-8,-17,-7,-7,-4,0,-9,-4
7133366243,-2,2,3,1,0,-5,2,-1
7133366243,-1,8,4,5,2,3,31,10
7133379892,2,-2,-2,-1,-1,-18,-12,-2
7133379892,4,-3,-7,-4,1,21,-7,2
7133387488,-1,9,2,-6,-8,-3,-3,-6
7133387488,3,-1,-5,3,5,-7,-9,0
7133402310,-6,24,7,4,-1,0,1,4
7133402310,-22,-30,-10,2,-5,-3,1,-9
7133409909,20,11,-2,-10,4,3,-3,8
7133409909,-26,13,4,16,-7,-8,-13,-10
7133425601,5,26,-5,0,9,0,2,6
7133425601,-5,-20,-4,17,-4,-2,-11,-3
7133426241,14,-7,5,-23,-2,-1,2,7
7133426241,-18,-66,-20,17,-17,-15,-17,-8
7133439887,36,71,6,-15,11,10,10,6
7133439887,-22,27,-10,-23,7,12,7,-9
7133447333,-30,-62,-3,12,2,-4,-4,-5
7133447333,14,61,9,3,2,-1,1,7
7133462405,1,-14,3,4,-9,-1,-9,-1
7133462405,20,-4,4,1,0,0,-5,1
7133469923,11,35,6,5,-5,-3,1,0
7133469923,-12,-9,0,-12,3,0,-14,-1
7133485549,-12,-17,-9,-7,-18,-10,-6,-3
7133485549,11,39,2,-6,4,6,7,4
7133486216,2,17,-1,14,20,4,10,0
7133486216,1,7,0,-2,8,8,-4,2
7133499883,-8,-2,2,-4,-5,6,7,1
7133499883,10,21,4,25,-2,-9,-3,-2
7133507397,4,35,-18,-27,-3,-1,-10,-10
7133507397,-7,7,1,-22,-16,-14,-17,-2
7133522394,-6,-43,-15,13,21,2,-1,-3
7133522394,-5,-27,-4,-17,-10,-1,11,4
7133529877,-8,-19,25,35,-5,-4,-19,-4
7133529877,10,-33,-7,-35,-4,1,-4,-1
7133545567,3,-33,9,-4,-14,-10,-14,-4
7133545567,-6,-11,-2,-6,0,7,9,-1
7133546238,2,-11,-17,-6,4,0,3,2
7133546238,4,-8,3,18,19,21,7,-1
7133559901,-8,-10,4,12,3,-4,-4,-2
7133559901,19,27,-5,10,2,-9,-3,4
7133567441,-8,-5,-2,-14,-17,-15,-3,-1
7133567441,-11,-22,-5,-8,-13,-2,-5,-11
7133582313,-2,9,12,12,8,6,6,-2
7133582313,6,14,5,-4,-1,-13,-8,2
7133589906,-7,-2,-3,22,4,20,9,1
7133589906,2,5,8,9,10,-17,13,-5
7133605516,-2,-16,-11,-27,-22,10,-52,-5
7133605516,-24,-28,0,-13,6,11,-16,-3
7133606215,0,-3,-9,12,4,2,9,1
7133606215,9,5,-16,-18,0,-3,0,0
7133628084,4,11,1,-1,-1,-2,17,6
7133628084,-12,3,1,-4,-15,-12,-12,-10
7133628756,-8,-11,0,-16,3,6,1,-1
7133628756,7,1,3,-7,-8,1,-6,3
7133642342,2,2,-22,-1,13,1,10,3
7133642342,3,4,-11,-13,-13,-13,-2,-1
7133649905,5,26,3,5,-1,-7,0,1
7133649905,5,5,6,9,-1,2,6,1
7133664837,-3,-16,-2,3,-3,-3,-2,1
7133664837,-3,1,10,10,10,5,21,5
7133673086,1,-1,-2,2,-5,-9,-3,-1
7133673086,4,3,6,5,-1,4,-11,-3
7133688005,3,-4,-2,0,1,-7,16,6
7133688005,5,-1,-10,-2,-2,2,-5,-2
7133688716,-2,1,8,3,4,6,11,2
7133688716,-3,2,-9,-5,-3,-3,6,-5
7133702290,-11,5,10,8,6,1,13,-2
7133702290,-1,-3,0,-2,-6,1,4,1
7133709854,2,-6,-2,-7,-9,-8,-9,-1
7133709854,2,1,-1,0,6,1,0,2
7133724879,-1,8,-8,-8,-9,-11,-32,-7
7133724879,0,-10,3,-2,4,15,9,5
7133733106,2,-12,-4,-3,-4,10,-7,-4
7133733106,2,-8,-4,5,2,-15,-7,1
7133739783,-11,-14,0,1,-7,-6,-13,-9
7133739783,0,-12,0,-4,3,7,-5,-4
7133747278,4,-11,-5,-5,0,-4,-8,2
7133747278,-2,-4,-1,0,-5,10,24,2
7133762364,7,-1,1,2,-1,-10,12,-1
7133762364,-12,7,0,0,-2,-12,-1,-1
7133769883,-1,8,2,-4,-2,8,9,-1
7133769883,1,-5,-10,2,-2,-5,-7,-2
7133784841,5,20,-1,-6,-1,5,8,6
7133784841,6,9,3,4,0,2,-1,-2
7133793058,0,17,2,7,0,-7,-8,0
7133793058,3,1,2,3,-4,-3,0,-3
7133808088,-7,-2,-13,-41,-13,2,2,1
7133808088,-1,9,1,27,19,4,-1,0
7133808750,2,10,15,20,13,0,9,2
7133808750,-5,2,-6,-5,-3,-1,-11,-2
7133822384,-17,-39,5,-7,-9,-5,2,-6
7133822384,8,31,-27,-42,-4,-6,-12,0
7133829881,-5,1,-3,13,-9,-6,-5,-3
7133829881,7,20,-12,-22,9,6,1,1
7133844855,2,-29,2,12,-6,-4,-3,-2
7133844855,-18,16,12,-11,-10,-2,-1,-5
7133853083,26,30,24,40,12,4,-1,8
7133853083,-24,-52,-37,-12,-2,-8,-13,-9
7133868034,14,37,24,16,13,8,5,-1
7133868034,-14,-40,-29,-24,-11,-6,-8,-5
7133868703,-10,-17,-14,-34,-18,-11,0,-2
7133868703,2,28,13,19,10,6,2,4
7133882307,-2,24,1,1,5,0,-6,-2
7133882307,28,-30,8,12,-1,1,4,1
7133889843,-29,15,3,-16,-13,-6,-3,3
7133889843,-16,8,4,3,7,1,1,-2
7133904851,1,14,-13,-21,-4,0,13,-6
7133904851,24,33,9,14,-2,3,-45,11
7133912776,-8,-41,-15,8,-5,-7,-3,-9
7133912776,-8,-5,7,-19,-6,-7,-11,-1
7133928044,-11,-5,-9,-1,-4,0,-1,-2
7133928044,-8,-30,4,13,2,-14,4,-3
7133928736,13,-9,-4,-29,-12,12,-4,-1
7133928736,8,-2,14,30,28,13,8,4
7133942408,9,-19,0,31,10,-9,-15,2
7133942408,-16,-7,3,-8,-18,-3,3,-4
7133949752,-12,-23,-19,-5,-2,0,-3,-7
7133949752,7,2,21,-7,-14,6,16,2
7133964904,6,-3,-18,16,8,-3,-2,1
7133964904,-5,7,12,-15,2,-13,-3,-10
7133973044,1,4,-14,11,3,7,10,1
7133973044,-2,-5,-12,-35,-32,-15,-5,-5
7133988005,7,14,-1,18,4,10,9,4
7133988005,4,-2,3,25,1,6,5,4
7133988852,-3,5,-22,-42,1,-12,-6,-6
7133988852,16,13,6,28,1,-5,-10,1
7134002352,-9,6,-25,-24,-13,-2,-1,-9
7134002352,-7,7,2,9,4,-15,35,-1
7134009853,7,13,11,-4,9,32,6,7
7134009853,-7,-9,-5,-2,0,-1,-7,-2
7134024858,-12,-20,-8,-9,5,7,5,-3
7134024858,-2,-9,-9,-12,-4,-5,1,-5
7134033072,4,1,-7,2,-3,-6,-5,0
7134033072,-11,-2,-1,-12,-7,-1,8,-5
7134047992,5,7,14,7,-6,-1,0,1
7134047992,6,15,-8,5,1,-5,-8,0
7134048691,-9,-15,10,0,6,-2,10,0
7134048691,5,-6,-8,5,-2,-1,-9,0
7134062356,7,0,4,-3,-4,-6,-3,3
7134062356,1,-3,-2,-6,1,8,-3,0
7134069833,0,2,-1,0,-1,-8,2,-3
7134069833,-3,9,4,-2,-4,-18,-26,1
7134084902,-7,-10,3,3,9,11,30,-5
7134084902,0,-6,-3,0,5,15,-28,2
7134093031,3,6,5,2,-2,0,11,3
7134093031,-11,-4,-1,-1,1,-2,10,-1
7134107930,-1,-15,2,-3,-2,-3,-28,-3
7134107930,6,6,-1,0,-7,-7,5,2
7134108738,-1,-22,-3,-3,2,8,-8,-8
7134108738,1,-25,-3,8,6,1,-2,2
7134122400,-2,-2,1,-4,-5,-19,-11,-4
7134122400,-2,-13,-2,-7,-1,22,12,-3
7134129767,7,-5,-1,1,3,3,14,6
7134129767,1,6,-1,0,-5,-7,-2,-2
7134144842,0,1,3,-1,-2,-2,-2,-1
7134144842,-6,-6,3,-2,-1,1,-2,-3
7134153069,1,-4,5,7,1,-17,12,-7
7134153069,6,4,3,1,-4,16,15,4
7134167982,2,-21,-9,-15,-1,-14,0,-2
7134167982,-16,6,0,4,2,1,-5,3
7134168720,4,21,11,5,-7,-1,-7,-4
7134168720,7,-13,-12,1,22,4,-2,-1
7134182328,-20,32,16,5,-15,4,-4,-9
7134182328,-2,-4,-36,-3,13,3,15,2
7134189841,24,-25,-1,-17,-6,-5,-19,6
7134189841,7,118,24,-11,3,5,9,9
7134204888,-13,9,9,26,-1,6,5,2
7134204888,-28,25,6,18,-6,-10,-13,-9
7134213084,-11,51,-6,-21,-8,-10,-5,-4
7134213084,-17,-61,-15,-17,-8,-1,-9,-9
7134227982,17,41,15,-34,3,12,7,4
7134227982,2,-70,-23,-6,11,2,8,7
7134228778,1,33,-8,-7,-14,-11,-21,-3
7134228778,10,39,49,-33,8,5,12,1
7134242387,4,44,-25,-39,-26,-6,-19,1
7134242387,-16,2,19,-12,-10,-6,-6,-7
7134249882,-10,-79,-42,39,17,-7,-9,-6
7134249882,-6,-37,19,43,-3,3,6,1
7134264818,-16,-18,-2,36,10,0,-6,-6
7134264818,27,47,12,-8,-12,-7,-5,2
7134273009,-19,34,-8,-30,4,6,-4,-4
7134273009,11,35,-1,21,-9,-5,-1,1
7134288071,-1,-41,-31,-21,10,4,4,4
7134288071,16,9,10,12,-2,-6,5,1
7134288728,0,4,6,-15,-11,6,-9,0
7134288728,-14,-28,-18,12,-20,-20,-17,-10
7134302219,6,18,-2,-11,-7,-3,-7,3
7134302219,5,18,13,13,10,-4,11,1
7134309831,-7,2,6,13,3,17,5,-3
7134309831,-7,-15,-10,-7,0,0,-5,-4
7134324903,1,-39,-14,-37,27,6,19,2
7134324903,-3,-5,-1,5,-26,6,4,-6
7134333031,5,-14,3,-8,0,-15,-33,2
7134333031,6,-16,-2,42,15,-9,-5,4
7134347902,-8,-9,16,19,12,30,22,-3
7134347902,10,-10,-4,0,6,-10,-1,3
7134348783,-2,-9,2,-3,4,4,10,0
7134348783,-10,-11,-13,-25,-35,-16,-16,-10
7134362312,4,-5,-1,16,11,7,-11,0
7134362312,1,-6,-13,-35,-8,-9,0,-1
7134369828,-2,-1,9,18,-6,10,4,2
7134369828,7,14,1,-10,1,-13,-2,-1
7134384857,-12,-20,-16,-7,-6,-23,-14,-8
7134384857,-3,4,12,27,-6,18,1,-2
7134393085,5,24,-3,-3,13,-12,2,4
7134393085,0,-5,-6,-21,-2,-3,1,-6
7134407967,4,6,13,39,-8,-3,1,2
7134407967,4,-3,-11,-46,2,-4,-7,-2
7134408755,-13,-4,0,-3,5,-6,2,-3
7134408755,7,8,-10,-17,-12,7,1,1
7134422354,6,6,9,14,-3,-4,3,1
7134422354,-6,-6,9,33,4,-6,-7,-2
7134429840,-3,1,3,6,13,11,10,0
7134429840,-5,-8,-19,-17,-1,15,5,-1
7134444869,-6,1,22,30,-4,-10,-2,3
7134444869,-6,-15,-30,-53,1,-3,-2,-2
7134452969,6,1,-10,-10,-17,4,-2,-4
7134452969,-3,-5,4,11,10,1,-5,-4
7134468110,13,3,-4,-4,-9,-3,8,3
7134468110,-2,2,8,9,1,-9,0,-1
7134468711,-2,3,14,13,2,8,10,1
7134468711,-7,-7,-15,-1,0,-1,14,1
7134482386,-6,-12,-4,-12,-11,-15,-23,-8
7134482386,12,10,8,7,5,20,20,10
7134489855,-4,-12,0,0,-5,-19,-9,-6
7134489855,2,0,5,6,3,-5,6,22
7134504858,3,-1,-9,-17,-8,17,-2,-32
7134504858,-5,-9,-4,1,-5,-22,-13,-9
7134513044,-13,-10,6,7,-1,4,-11,-2
7134513044,-6,4,-3,-1,1,10,3,-5
7134528059,-4,-10,-12,-11,-8,-15,-25,4
7134528059,7,6,7,11,7,17,10,7
7134528703,2,-7,1,1,1,3,3,-3
7134528703,2,5,2,0,-2,-9,-8,-2
7134542368,6,-11,1,-4,0,2,1,4
7134542368,-2,15,6,5,-3,-1,-13,-9
7134549861,10,7,3,0,1,-3,1,14
7134549861,-8,-9,-6,2,-2,-2,3,-7
7134564830,-3,26,-4,-8,-2,-5,4,5
7134564830,-3,-14,-2,5,5,4,-4,-4
7134573081,-2,-10,1,-11,-13,-10,2,-5
7134573081,-1,2,0,25,11,5,-6,-2
7134587396,5,3,4,-7,4,5,8,7
7134587396,4,7,13,24,-2,-7,-10,3
7134595553,-1,4,-10,-35,1,5,5,1
7134595553,-8,-31,-21,-5,3,1,-3,-8
7134602214,-7,4,1,3,-9,-8,2,0
7134602214,7,-8,4,3,4,4,2,5
7134610531,3,23,10,13,-17,-9,-2,-4
7134610531,-4,-13,-10,-22,5,-2,-1,-2
7134624907,-12,3,-5,-6,1,3,5,2
7134624907,-8,-24,-1,4,1,0,-5,-3
7134633069,12,20,4,22,8,1,2,-1
7134633069,4,2,16,1,-9,0,4,4
7134647386,16,-2,-2,12,6,3,-3,1
7134647386,-14,3,-13,-28,-5,2,-1,-5
7134655485,-13,-2,-4,8,6,-5,4,-1
7134655485,0,11,7,-8,-10,-4,-6,-4
7134671194,13,3,-1,21,0,-9,3,7
7134671194,12,13,-3,-8,1,9,-13,-7
7134671829,-8,-6,-5,2,-2,-21,-4,-5
7134671829,-35,23,11,0,4,18,2,-6
7134684833,-5,11,6,7,-14,-12,8,3
7134684833,-3,-16,-4,-10,19,14,4,1
7134693060,16,-5,0,-4,-6,-3,-13,1
7134693060,22,11,10,30,12,7,0,-3
7134707373,-11,-21,-4,-18,20,6,-12,5
7134707373,-2,0,-6,4,-26,-27,-8,1
7134716259,-13,-22,-2,-3,-15,19,17,-3
7134716259,11,-3,-2,-30,-2,-4,11,2
7134722346,0,-12,-2,29,4,-7,-7,-5
7134722346,-3,-2,5,9,0,-5,-8,-1
7134738704,4,7,-1,-4,-1,-8,-8,3
7134738704,0,-11,1,-15,-19,-16,-7,-3
7134744841,-4,-3,-4,-5,10,3,1,-3
7134744841,4,27,11,7,22,17,14,3
7134753743,3,2,-8,8,-16,-7,2,-1
7134753743,5,-17,-12,3,12,6,2,1
7134767327,-15,2,-3,-9,-22,-5,-1,-6
7134767327,0,4,-4,52,26,1,3,-2
7134776211,-9,-16,-11,-18,6,6,-3,-4
7134776211,10,2,7,43,-5,-4,-1,3
7134789891,8,12,-20,-40,5,4,0,-1
7134789891,-15,-11,-8,-44,-23,-12,-8,-10
7134798704,-3,-2,8,17,-1,-6,-2,2
7134798704,-4,3,-7,5,9,7,8,-2
7134804815,8,-3,-4,22,7,9,17,4
7134804815,4,14,3,0,-10,11,10,1
7134813713,2,-2,-12,-17,0,-17,-13,-6
7134813713,-7,3,7,-6,-8,-19,3,1
7134827332,0,10,22,-2,1,11,33,2
7134827332,3,6,1,-10,-2,-5,-38,5
7134836225,-3,-10,-5,4,3,11,10,1
7134836225,0,-10,-9,-9,0,-1,5,-3
7134849868,-1,-6,0,-4,-3,-2,-9,3
7134849868,-2,-3,-9,0,-6,-17,10,-4
7134858728,-6,2,7,-1,0,1,-5,-10
7134858728,-2,-3,0,-15,-5,10,1,3
7134864789,1,0,-12,-17,-9,-11,-16,-7
7134864789,5,-9,1,2,-2,12,43,8
7134873680,-9,-6,0,-5,2,-11,-10,-9
7134873680,-11,3,-7,-8,4,5,-14,6
7134887353,-1,-3,9,0,-10,-51,-29,-11
7134887353,6,-5,1,-6,-1,51,44,9
7134896211,12,-8,2,3,7,14,-14,4
7134896211,-3,-7,-6,-4,-6,-18,-2,-2
7134909857,-18,-11,0,-3,0,4,-15,-4
7134909857,-7,-7,-2,-7,-13,-21,-2,-7
7134918689,4,-8,-4,-6,4,5,12,-1
7134918689,-1,-3,5,5,2,-4,12,1
7134933697,-1,-4,2,-2,-4,7,-3,1
7134933697,-8,1,-1,-6,-5,-29,-16,-6
7134935184,-1,-7,-3,1,-1,9,10,2
7134935184,19,20,-5,-3,-4,3,-7,-2
7134947317,-5,-1,5,3,-3,-3,6,-3
7134947317,-8,-5,-5,-4,-2,3,-10,3
7134956228,-13,-3,2,-10,-6,-6,-6,-2
7134956228,20,29,21,13,3,0,6,0
7134969857,-2,-25,-14,7,0,8,1,0
7134969857,-10,-1,-10,-34,-11,-12,-15,-6
7134978715,13,16,19,13,16,10,8,1
7134978715,0,-7,-50,-31,2,6,-5,1
7134984828,45,76,62,46,1,13,9,11
7134984828,-63,14,-49,-75,-7,-8,-8,-19
7134993713,18,80,51,47,-22,-12,-1,6
7134993713,-33,-91,-34,-32,10,1,-3,-8
7135007311,10,25,-23,4,-2,0,1,8
7135007311,18,-61,20,18,-2,-4,-6,2
7135016193,-8,-10,-7,3,2,-5,-4,-4
7135016193,12,10,2,-18,-7,1,-9,4
7135030232,-19,-11,-4,-7,-4,2,-1,-5
7135030232,14,83,21,4,4,-2,0,5
7135038702,-36,-102,-18,11,0,2,-6,-12
7135038702,3,19,10,9,-6,-6,-3,4
7135044741,-3,3,-10,-20,-2,-1,0,-4
7135044741,25,41,18,29,0,4,-5,1
7135053733,6,23,7,-3,6,-4,4,6
7135053733,-6,-7,4,29,1,-1,0,-2
7135067219,-10,-12,-11,-46,-6,1,-6,-7
7135067219,-5,-23,4,47,-19,-28,-2,-3
7135076197,0,22,-17,-19,21,17,-5,-8
7135076197,-4,23,2,4,-8,1,-19,-6
7135089843,-5,3,-10,-19,-13,-12,2,-2
7135089843,0,-20,4,18,-3,1,2,0
7135098690,-2,-24,-18,-30,25,14,18,0
7135098690,0,0,10,7,-31,-11,-10,1
7135104811,-1,-30,6,6,-2,3,11,1
7135104811,18,-23,-4,-8,17,6,-11,-1
7135113718,-1,-7,-2,17,24,6,3,2
7135113718,-7,4,8,-1,8,7,4,1
7135127308,-6,-19,-8,-6,-18,-7,-10,-7
7135127308,1,-10,-17,-10,-26,-21,-14,-5
7135136209,-2,4,-6,-26,2,-13,-8,-3
7135136209,12,6,12,28,0,21,11,2
7135150526,-5,-7,-4,-4,9,-19,-8,1
7135150526,4,12,-12,-26,6,26,16,3
7135157196,1,10,2,17,-12,-9,-10,2
7135157196,-5,-16,-3,-11,6,-15,-1,-4
7135173639,-9,-7,6,6,6,24,14,-3
7135173639,5,12,2,14,24,-6,-15,2
7135175171,-1,2,-13,-9,-24,-11,2,3
7135175171,-8,-9,21,-7,-15,-3,4,-3
7135187237,5,7,-10,9,17,2,-4,0
7135187237,-1,-6,-4,14,16,21,-3,0
7135196187,-1,10,0,-16,-21,-2,0,4
7135196187,-4,3,0,-8,6,-5,1,-6
7135210534,5,3,22,35,-1,5,0,2
7135210534,1,-11,-22,-25,8,-4,-3,-2
7135217226,-2,3,-5,-8,-10,-7,1,0
7135217226,2,8,-9,-11,-2,-2,-4,-3
7135233694,-3,8,6,0,0,-8,3,-3
7135233694,-3,-4,15,16,-7,-3,1,0
7135235267,1,-1,1,0,-3,-9,-5,-3
7135235267,-1,-3,-5,-2,3,7,2,-4
7135247322,-12,-4,3,-3,-2,4,-6,-5
7135247322,5,-2,4,7,2,-8,-11,0
7135256216,9,-7,-9,-15,-1,9,17,5
7135256216,0,8,2,5,2,-4,-10,1
7135271178,2,5,0,2,8,14,8,0
7135271178,2,4,-6,-9,-6,3,-28,1
7135272648,-12,-13,-4,-3,-13,-17,-9,-7
7135272648,0,1,-6,1,-2,-19,6,-3
7135293680,2,-9,-6,-2,7,21,-7,4
7135293680,-13,-13,2,-5,-6,-8,2,-2
7135295188,1,0,3,8,1,2,3,-2
7135295188,-4,-2,0,3,6,2,3,0
7135307336,8,2,-5,-12,-3,-7,-6,-4
7135307336,-5,3,5,3,-4,-1,8,-2
7135316266,-5,-6,-3,0,0,5,-4,1
7135316266,-4,6,-4,-1,2,-2,-3,0
7135331203,2,0,-4,-11,-6,-8,0,0
7135331203,-4,-3,8,15,9,7,12,-1
7135332670,6,-7,-9,-8,-3,-1,-2,-2
7135332670,4,-2,-4,-9,-8,-3,-10,-2
7135353657,5,-9,0,13,6,-1,3,1
7135353657,-11,1,8,-3,-2,0,6,-2
7135355142,-5,8,4,3,3,-1,-5,-4
7135355142,-7,-9,-3,-4,2,6,6,1
7135367266,-4,-3,3,3,-4,-7,-5,-2
7135367266,1,-4,-18,-11,-5,-3,5,-3
7135376162,-4,5,-4,-12,-6,0,-3,0
7135376162,2,4,-5,-10,-1,0,-2,7
7135391160,4,0,0,4,-3,-3,2,2
7135391160,-3,2,0,-1,-4,-6,-7,-5
7135392671,5,-1,-2,-1,-1,1,-1,0
7135392671,-10,-1,-5,-16,-6,0,-3,-4
7135413645,0,5,1,17,4,-4,-4,0
7135413645,6,6,6,-1,-7,-3,1,1
7135415167,-10,-7,1,-7,-3,0,-6,-3
7135415167,4,7,6,16,-1,0,3,-2
7135427336,3,1,-8,-4,8,5,2,1
7135427336,-6,-19,-8,-14,-9,-1,-1,-4
7135436174,0,-9,10,12,-9,-7,-1,2
7135436174,3,9,-16,-14,6,3,-3,-1
7135451185,-11,5,-1,-2,6,4,2,-4
7135451185,1,-7,7,15,10,4,4,0
7135452637,19,14,7,2,-5,3,5,5
7135452637,-9,-21,2,9,-2,-5,-2,-4
7135473668,-11,13,-1,-22,-11,-14,-7,-5
7135473668,2,15,13,26,6,0,-1,-4
7135475171,-3,-20,-22,-19,-11,1,0,-2
7135475171,11,9,-2,0,-6,-6,-1,7
7135487287,-4,-7,-5,-16,4,6,-1,-1
7135487287,3,9,2,-1,6,14,12,7
7135496197,-10,-2,2,10,15,4,-3,-6
7135496197,9,17,-1,-6,-13,-18,-8,-5
7135511195,-8,-15,-2,-6,-10,8,-3,-4
7135511195,-6,-10,-6,10,15,-2,-2,-2
7135512666,9,2,-4,10,-5,-14,5,4
7135512666,-3,-3,-8,-21,-5,11,-11,-4
7135524887,-4,-10,11,24,0,-8,-3,-2
7135524887,6,-4,-19,-34,-10,4,3,1
7135533657,-5,1,7,20,4,-2,-1,-3
7135533657,-10,-16,-1,-4,-6,1,-1,-3
7135547377,10,4,0,-18,-16,-7,2,2
7135547377,0,4,-8,1,18,-8,-9,-1
7135556202,-11,-2,6,33,26,26,5,-4
7135556202,1,1,18,26,-17,-12,-1,-1
7135570550,-3,-7,-15,-13,6,16,10,0
7135570550,-1,7,6,9,-3,-4,-8,-2
7135577310,-20,-19,-15,-23,-21,-35,-16,-6
7135577310,5,-10,4,10,12,21,2,-3
7135593691,3,3,-8,15,-2,-9,0,1
7135593691,-2,-18,-6,-40,-10,-4,1,4
7135595166,4,6,9,10,5,9,2,0
7135595166,-2,2,-7,-8,6,-2,4,-1
7135607322,-8,-16,-16,-54,-18,0,-10,-5
7135607322,0,8,7,53,6,1,0,1
7135616186,6,16,9,4,1,2,2,3
7135616186,2,-7,8,16,7,5,2,3
7135630419,-2,1,6,-19,-4,-21,-11,-5
7135630419,-4,-12,-3,1,0,9,6,-1
7135637280,0,0,-8,-17,-4,2,-3,-4
7135637280,-2,13,1,7,2,-18,-5,-2
7135653628,3,5,5,14,-4,8,-4,-2
7135653628,-8,-5,0,-12,-10,-8,-3,-5
7135655142,-4,-4,-15,-23,-19,-60,-25,-9
7135655142,-1,0,-6,-13,-8,27,-17,-6
7135667288,4,-7,-2,13,5,-18,2,0
7135667288,1,-6,1,-7,-5,5,7,4
7135676138,-3,-5,-5,-7,-2,20,1,-5
7135676138,-15,-25,-8,-4,-1,-26,-13,-6
7135690459,2,-2,5,13,10,-51,-8,0
7135690459,6,3,-6,-7,-10,46,-20,1
7135697320,-2,3,6,-6,-4,-7,18,-5
7135697320,-20,0,2,2,8,-12,2,3
7135713662,9,3,0,6,5,21,11,10
7135713662,7,-14,-5,-5,-7,-14,3,1
7135715171,13,-1,5,2,2,0,-3,8
7135715171,-50,-16,-2,-3,-1,18,-16,-10
7135727254,15,38,8,9,9,8,10,-3
7135727254,-18,-40,-9,-8,-16,-14,-5,-6
7135736173,8,-15,-3,0,4,12,7,1
7135736173,42,60,25,12,7,-5,20,7
7135750508,-52,-19,-17,-12,-11,-1,-13,-5
7135750508,-9,-72,18,35,-3,-8,-7,-16
7135757287,16,87,-28,-61,2,19,10,18
7135757287,11,-41,-21,21,19,-3,3,3
7135773639,10,57,57,28,4,10,-8,-8
7135773639,12,-44,-37,-76,-22,-5,6,7
7135775158,14,-84,6,52,-20,-18,-11,-4
7135775158,-60,46,23,-58,34,19,5,-17
7135787329,31,60,-36,32,-3,13,15,7
7135787329,-1,45,22,-49,12,-11,1,1
7135796145,2,26,-44,-28,2,1,-3,3
7135796145,26,-53,8,22,-37,-15,1,6
7135810448,5,-24,-7,6,-7,0,-5,-4
7135810448,17,96,38,28,16,1,4,12
7135817313,-21,-25,36,45,12,16,1,-3
7135817313,10,4,-22,-23,-3,0,1,-2
7135833738,-18,-26,-7,-18,-2,3,3,0
7135833738,7,-3,-17,4,-10,-8,-4,3
7135835178,-14,-3,13,-12,-6,-5,-11,-12
7135835178,5,-10,-8,19,-7,-8,8,-1
7135847294,10,-14,-4,-22,6,1,-1,5
7135847294,-5,33,6,12,-8,8,9,0
7135856178,-12,16,3,16,18,16,11,-1
7135856178,4,40,8,-13,-8,-7,-3,1
7135870424,-9,14,3,0,-3,-8,4,0
7135870424,4,17,-22,9,11,8,1,-6
7135877294,-17,-18,15,12,1,0,-17,0
7135877294,11,-28,-25,-37,7,5,11,5
7135893658,-9,-50,6,-31,-36,-2,0,-5
7135893658,-10,-38,5,28,43,6,5,-4
7135895145,12,-21,5,12,11,-1,6,1
7135895145,6,-6,5,24,-4,-8,0,2
7135907306,-6,-24,-11,-12,-10,0,-7,-4
7135907306,-3,-4,5,-8,-15,-26,-5,-5
7135916179,8,14,-8,-17,-5,10,7,2
7135916179,-4,1,1,-18,-3,-1,-4,-2
7135930418,-4,-15,-12,0,5,-3,-1,-4
7135930418,1,11,6,13,-9,-1,-3,-1
7135937212,-5,0,-7,-28,-9,-11,-4,0
7135937212,9,23,21,32,-8,-7,-2,-2
7135953627,-7,-23,-7,3,16,8,0,-2
7135953627,-6,9,0,16,9,11,4,2
7135955115,-2,-7,-11,-20,-7,-8,-5,0
7135955115,-6,-12,6,-10,-20,-5,-7,-6
7135967287,0,9,6,13,13,3,-3,-4
7135967287,-6,-8,2,19,17,3,4,2
7135976179,-2,-2,-8,-13,-8,-9,3,-4
7135976179,12,6,-5,3,-5,18,-9,4
7135990450,-2,-2,5,22,2,-11,-11,-3
7135990450,-9,-10,-15,-3,-8,-4,-5,-4
7135997269,5,7,-7,-17,1,0,0,-1
7135997269,2,7,3,11,2,-3,1,-1
7136013657,-8,2,6,-13,-10,8,-2,-3
7136013657,-4,7,8,6,-4,-8,-8,-6
7136015143,-8,-10,1,7,-1,-6,2,-5
7136015143,-8,-15,-4,-6,1,4,0,-3
7136027318,6,-2,-1,-6,0,-10,-5,5
7136027318,-1,4,-17,-22,-13,-10,0,-5
7136036161,-2,13,11,9,9,17,-3,-4
7136036161,-9,-19,-12,-8,0,-3,11,-3
7136050475,9,4,-4,-3,-4,-23,2,7
7136050475,-3,-6,-2,-15,-9,14,12,-4
7136057208,-6,1,0,5,1,14,-2,-1
7136057208,0,5,-2,9,5,-2,-3,3
7136073540,-3,-3,-2,-1,0,-2,1,-2
7136073540,-1,-8,0,-8,-7,-13,3,1
7136075102,10,-5,4,5,-5,-18,-5,-2
7136075102,7,-2,0,6,9,13,-4,3
7136087280,-19,-7,-4,-6,0,5,7,-3
7136087280,2,5,-3,-6,-3,-2,-3,2
7136096179,1,5,3,4,-5,-10,-10,-2
7136096179,-2,-25,-8,-5,-1,7,-24,2
7136110490,10,11,4,1,5,24,22,-1
7136110490,-7,-1,2,0,-3,-10,-14,-1
7136117286,5,-4,-2,-3,-2,-1,-3,1
7136117286,7,16,0,-1,-3,-11,9,1
7136133410,-3,-6,-7,-6,-1,-1,-12,-2
7136133410,2,15,-4,-8,3,9,0,1
7136139735,-11,-24,-8,2,-7,-14,5,-4
7136139735,12,12,16,10,2,3,3,1
7136147312,-7,-6,4,16,11,2,-4,-2
7136147312,-2,-17,-22,-24,-9,-7,-6,1
7136156170,-2,4,3,-14,2,0,1,-1
7136156170,-4,-7,-1,27,6,6,9,1
7136170503,-2,30,9,-13,1,-6,-11,-5
7136170503,12,16,8,4,-2,-2,0,1
7136177293,-6,38,26,33,-6,1,-4,-1
7136177293,-7,-42,-33,-29,-2,-4,-2,-3
7136193659,5,-2,11,13,-2,4,1,1
7136193659,-5,-9,-5,-6,-2,-8,-6,-1
7136195144,-4,-11,-11,-14,5,12,6,0
7136195144,9,15,14,1,-5,-7,-1,1
7136207233,-1,4,-14,-8,-8,-6,-1,0
7136207233,2,4,4,7,-6,-3,-7,-4
7136216117,6,4,8,-1,-2,3,7,1
7136216117,4,4,-2,0,-1,3,-15,1
7136230477,-30,-13,-12,-4,0,-6,-6,-11
7136230477,-4,-6,10,28,-5,4,3,-1
7136237255,2,4,-3,-9,-8,-8,0,-4
7136237255,7,8,-4,-5,1,0,5,1
7136253560,12,-9,-7,-5,-7,-7,-2,4
7136253560,-18,-3,-4,-10,13,14,-6,-6
7136255096,0,-9,-13,-2,-3,3,5,1
7136255096,6,19,5,14,12,-7,13,0
7136267281,10,-6,4,2,-5,3,-1,3
7136267281,-5,-9,2,-4,-6,-8,-5,-6
7136276182,-12,-15,1,7,-8,-11,-10,-1
7136276182,-7,-12,-9,-35,-22,-4,-1,-9
7136290473,-8,-6,-4,1,9,9,-4,-1
7136290473,1,-14,0,-4,3,-8,-2,-2
7136297276,9,0,-7,-5,-9,-4,-7,1
7136297276,-14,2,6,19,-18,-14,-10,-5
7136313558,12,-14,-8,1,16,10,-5,2
7136313558,1,6,2,-14,-3,12,14,4
7136315183,0,6,11,28,3,-15,-4,-1
7136315183,-8,-5,-8,-10,24,10,4,-2
7136327178,8,-1,-7,-13,-10,-1,3,1
7136327178,5,6,13,22,-2,-4,-3,2
7136336140,-5,0,-17,-28,-5,-5,-1,-2
7136336140,-10,-18,1,20,2,1,-5,-6
7136350425,5,16,6,2,-5,7,9,4
7136350425,14,13,-7,15,14,0,3,6
7136357257,-1,-7,-2,-15,-2,3,-3,-2
7136357257,4,7,-12,-2,1,-5,-2,2
7136373615,3,19,11,-4,-1,-2,0,-1
7136373615,-12,-15,-11,9,4,4,0,-5
7136375151,7,13,13,14,5,4,3,3
7136375151,4,10,5,2,7,6,4,2
7136387280,-4,-6,3,4,-5,-11,-4,-2
7136387280,8,7,12,-1,-8,-5,4,0
7136396146,0,-9,-8,-7,1,-11,0,-3
7136396146,-16,0,7,-10,-4,4,-4,-1
7136418638,-1,-4,-3,-2,-7,-10,-6,-2
7136418638,4,8,-3,-8,-4,-9,-6,-1
7136420126,-11,-25,-9,-11,-1,4,3,-3
7136420126,-3,1,3,4,-4,-26,13,-5
7136433608,5,0,-1,0,-1,-27,-37,9
7136433608,-5,-2,-11,-13,-2,74,11,-9
7136435121,4,10,8,11,7,2,7,-1
7136435121,2,-10,-5,-4,-4,0,-23,2
7136447212,-16,-20,-5,-5,-1,14,14,-18
7136447212,-4,-13,-1,-7,-5,-35,-16,3
7136456175,-4,-4,0,3,1,-8,0,21
7136456175,7,0,-3,-1,2,31,20,9
7136470456,8,-4,-4,-4,0,-23,-7,-3
7136470456,-9,-5,-1,-4,-5,-6,2,-3
7136477278,-3,-3,-4,-4,-3,2,11,-5
7136477278,5,4,0,-5,-5,-22,-8,0
7136492989,7,0,-1,4,2,26,11,6
7136492989,-6,11,0,-1,0,-14,6,-2
7136499803,1,-3,0,0,3,15,-8,0
7136499803,8,-9,-8,-5,-5,-16,-6,-7
7136516052,0,12,6,-2,-1,0,15,1
7136516052,1,-9,-3,0,-1,-6,-12,3
7136517634,-12,-6,0,-3,3,18,-3,-6
7136517634,-7,-7,-1,2,-4,4,-8,-6
7136529667,-5,28,15,-6,-8,0,-4,-1
7136529667,-6,-65,-4,39,-3,-12,-5,-1
7136538662,0,41,24,9,-2,-11,-7,-7
7136538662,9,38,-34,-26,15,3,7,4
7136552953,-9,-2,-4,-10,-1,3,4,9
7136552953,10,57,1,14,-3,-12,-3,2
7136559785,-14,-27,-12,-20,-13,-3,-5,-8
7136559785,-25,-20,34,47,22,21,5,-7
7136575979,24,30,20,34,-25,-11,-2,1
7136575979,-13,3,-40,-57,11,-2,-7,-7
7136577620,8,-10,-28,-27,-1,-4,-4,3
7136577620,-24,-4,-2,3,-13,-11,-9,-5
7136589787,23,-11,-23,-3,10,5,4,4
7136589787,4,-5,28,7,-4,0,13,4
7136598594,-14,35,17,-5,-6,-4,-12,-5
7136598594,0,-8,-10,-19,-11,-5,19,2
7136612906,-33,-11,0,22,13,3,-24,-16
7136612906,11,-9,0,-4,-1,0,2,0
7136619782,11,16,3,4,9,3,-1,8
7136619782,-8,-5,-1,-1,-19,-26,-5,-3
7136636087,8,5,-1,3,-18,18,7,-1
7136636087,-7,20,-3,-28,5,-3,15,4
7136637640,19,12,-3,32,16,5,9,4
7136637640,4,20,6,-11,-7,6,8,-2
7136650209,-18,-25,-18,-11,12,-4,7,-6
7136650209,9,2,7,3,12,1,31,7
7136658644,-3,-27,-3,-6,-14,-10,-5,-8
7136658644,1,-29,-4,-22,-26,-2,-11,-8
7136672955,-14,-16,6,-9,12,14,17,3
7136672955,1,-21,-5,3,-2,-22,-19,-5
7136679755,0,-19,-2,-7,1,7,-3,-2
7136679755,4,-8,6,15,2,-2,6,2
7136696574,5,-2,-3,-14,-12,-2,-4,1
7136696574,-6,-4,4,14,18,1,-3,-4
7136698064,-1,-12,-7,-11,-17,0,-7,1
7136698064,-6,9,3,6,16,13,3,-3
7136709776,1,-8,-3,-2,1,-9,-4,0
7136709776,1,9,7,5,-2,11,-13,-2
7136718586,-11,-6,1,-12,-6,-5,1,-8
7136718586,6,1,9,30,-5,-5,-1,3
7136732930,-28,-39,-14,-58,1,-1,-13,-12
7136732930,0,-10,-23,-25,-21,1,-4,-4
7136739785,-2,-12,-11,-14,-9,-3,3,0
7136739785,0,-7,8,25,19,1,-5,1
7136756020,-1,5,13,32,-2,-5,0,0
7136756020,-8,1,11,2,-10,-12,-16,-10
7136757626,1,-7,-29,-6,-3,-8,0,-5
7136757626,-6,-11,6,-3,-4,4,0,9
7136769761,12,-2,-41,-37,-5,-4,-6,-1
7136769761,1,7,24,19,3,10,-1,5
7136778630,9,-2,3,9,13,3,6,4
7136778630,-7,6,-5,-14,-2,-2,-10,-9
7136792916,-5,12,14,14,-10,-7,-1,-1
7136792916,5,-5,-6,-4,-6,-18,-3,1
7136799751,1,6,4,9,0,14,-5,-1
7136799751,11,16,-2,-7,0,-22,-12,-4
7136816146,7,4,7,14,8,29,4,7
7136816146,2,-2,-7,-4,-6,-16,1,-2
7136817632,-9,7,12,20,20,21,11,6
7136817632,4,5,-7,-12,-1,5,11,3
7136829764,14,1,0,0,1,-5,14,4
7136829764,-3,-8,5,-2,-8,-6,-1,-4
7136838587,-3,-12,-4,1,-6,-15,8,-9
7136838587,2,-7,-8,-11,-3,12,-24,6
7136852915,-1,1,3,9,6,-7,-12,1
7136852915,9,5,-5,-6,-5,0,-1,3
7136859754,-21,-7,4,-1,-3,1,7,-5
7136859754,-7,-7,-4,-4,3,-4,-9,-4
7136876101,10,5,2,0,-2,-9,8,-2
7136876101,-8,7,-2,-1,0,10,-10,4
7136877618,1,-2,-3,0,-1,0,-23,0
7136877618,3,-4,-7,-6,-5,-8,3,-3
7136889684,-11,9,2,3,1,-2,-3,0
7136889684,-3,-1,-2,-2,-1,7,0,-7
7136898622,14,6,4,3,2,-3,1,3
7136898622,8,4,-2,-4,-1,4,1,4
7136912957,-8,-2,-3,-1,-2,-5,4,-5
7136912957,-2,-5,-3,1,1,-9,-12,-1
7136919758,-1,9,6,2,-2,8,-21,1
7136919758,-13,-6,-2,-5,-1,7,9,-2
7136936268,5,6,4,5,-4,-12,-11,-4
7136936268,-7,12,-1,-19,6,14,9,3
7136937636,0,7,-7,16,3,-8,-4,-1
7136937636,6,1,1,11,8,1,5,3
7136949782,-7,-19,-7,-9,-5,-3,-6,-7
7136949782,28,-28,0,1,-5,-1,-2,9
7136958593,-31,3,-6,-9,-3,-3,6,-6
7136958593,3,20,-1,-11,-13,-5,-1,-2
7136972814,5,13,15,19,10,1,3,2
7136972814,-28,-34,-23,-10,-7,2,-6,-10
7136979786,22,-3,26,38,-11,-16,-4,6
7136979786,-3,-20,-25,-29,16,12,3,-5
7136996100,2,26,4,8,16,13,8,4
7136996100,-8,-22,-4,1,1,7,1,-5
7136997550,4,20,15,4,-1,-10,2,5
7136997550,2,2,-10,-12,-19,-10,-8,0
7137009704,11,11,0,-12,-5,-10,-8,-3
7137009704,3,23,-4,10,4,13,11,5
7137018644,3,-3,-9,1,6,1,14,1
7137018644,7,19,12,5,-6,-13,-15,-9
7137032965,-12,-13,-7,-8,-5,-4,37,6
7137032965,-1,20,-10,-24,-19,-11,-15,-5
7137039796,-2,8,16,31,7,4,5,-1
7137039796,7,-20,-18,-20,9,9,12,-1
7137056092,-12,-9,-12,3,20,7,-6,-1
7137056092,-13,-18,6,10,-15,-15,-7,-6
7137057611,19,-9,1,-33,3,5,6,2
7137057611,5,-7,5,11,-9,-5,-1,2
7137069747,-20,-35,3,2,-11,-1,-22,-10
7137069747,4,4,1,-5,3,-2,1,-3
7137078594,-8,-27,-22,-23,-15,-10,-13,-4
7137078594,-1,4,7,12,2,14,3,-1
7137092859,-1,-3,9,14,9,-15,-2,5
7137092859,7,18,17,7,15,17,14,2
7137099762,4,20,-2,3,17,27,5,3
7137099762,-12,-8,-15,-34,-16,-10,3,-3
7137116085,9,0,-7,-8,-14,-11,-10,2
7137116085,1,1,5,15,3,-4,5,-2
7137117573,6,10,-1,-5,-2,1,1,-2
7137117573,-8,12,16,2,-3,-13,-10,0
7137138628,-1,-6,-8,-6,2,-1,5,-1
7137138628,15,27,-1,10,-6,1,0,-1
7137140154,-19,-9,-2,-7,2,0,19,0
7137140154,11,12,3,16,3,1,4,7
7137152943,-15,-23,-10,-12,-2,1,-9,-5
7137152943,3,-4,-1,-4,0,-7,16,2
7137159771,6,-5,-3,-2,1,25,0,2
7137159771,-10,-3,1,-2,2,-7,-13,-7
7137176092,14,19,4,5,-5,1,3,-1
7137176092,-12,2,7,3,6,2,8,0
7137177659,1,-4,-8,-13,-10,-19,-15,-3
7137177659,0,0,0,9,-1,1,-6,3
7137189753,2,9,2,-3,1,13,0,-4
7137189753,3,7,3,8,7,-3,7,0
7137198606,-7,-6,0,-1,2,4,-10,-6
7137198606,0,-8,3,8,3,3,6,9
7137212852,2,-1,-4,-5,-10,-6,-7,-1
7137212852,-5,-14,-7,-11,-6,-5,-9,-3
7137219787,-1,-18,-6,-3,-5,-8,-7,-3
7137219787,0,-7,4,4,5,2,0,-1
7137236125,-9,-7,-1,-6,-5,-11,-3,-3
7137236125,16,-8,-4,1,1,16,-8,3
7137237618,-6,3,-5,-6,-5,-8,-1,-3
7137237618,-16,-6,1,4,4,3,1,-1
7137258583,3,-3,-5,-3,-3,-2,1,-1
7137258583,-8,-3,-5,-4,-5,-6,-1,-2
7137260116,0,-1,-4,-2,1,-9,0,-1
7137260116,-4,-2,-1,4,1,5,-1,-5
7137272284,3,-3,4,2,2,0,8,1
7137272284,4,3,-2,-12,-4,-8,-21,-2
7137281075,0,-2,4,3,-2,2,13,2
7137281075,0,-2,0,-5,-1,-2,-1,-2
7137296054,2,7,3,8,-4,4,-13,3
7137296054,-2,6,-3,-3,-2,-11,-4,-2
7137297574,-7,-4,1,1,3,-3,-6,-4
7137297574,3,1,-8,0,1,1,-20,-3
7137318460,0,5,-6,-10,-3,-2,0,-3
7137318460,-12,-5,0,12,2,6,6,4
7137320039,-6,-1,-6,-5,-6,-9,-2,-3
7137320039,6,10,0,4,-2,-4,3,1
7137333622,12,3,-5,-10,-5,-5,2,-3
7137333622,-13,-1,4,4,-3,3,-4,-2
7137339637,-12,-2,-3,-12,-9,-8,-7,-5
7137339637,13,-4,-1,-14,5,4,7,2
7137355459,-4,10,9,27,9,-1,0,1
7137355459,-4,-3,-14,-13,-2,0,5,1
7137356091,2,7,10,9,2,3,-1,-1
7137356091,-10,-3,-2,-3,-2,-6,2,-3
7137377877,4,-3,3,-1,-5,-2,-2,-1
7137377877,0,2,4,0,2,5,-2,1
7137378592,-2,-7,-4,-3,-10,-7,-10,-4
7137378592,-2,2,4,12,8,8,6,-2
7137393605,-3,-1,-3,-5,-1,4,-1,-3
7137393605,2,0,10,18,-9,-7,-5,-4
7137399733,5,6,0,-13,6,-5,0,5
7137399733,-4,-6,-6,2,-1,-2,-4,-6
7137414730,0,2,-6,-11,-2,0,6,-1
7137414730,-14,-1,-3,-5,-3,6,-1,-1
7137422232,13,8,8,14,10,4,11,3
7137422232,-1,8,-10,-3,-5,-11,-22,1
7137437900,-10,9,1,-6,-3,2,13,-1
7137437900,4,16,0,-10,-4,-9,-1,4
7137438576,3,-11,-13,-13,-10,-15,-9,-1
7137438576,3,-3,6,11,2,17,4,0
7137453605,1,-6,-1,-3,-2,0,-1,0
7137453605,5,-12,-2,-1,14,15,-8,-1
7137459732,-11,-14,3,15,-2,0,1,-3
7137459732,2,-1,0,-17,-16,-20,5,-2
7137474736,1,-13,-7,0,1,12,1,1
7137474736,-7,-13,-1,-6,-5,-4,2,-6
7137482216,7,6,1,9,15,6,-3,0
7137482216,-7,3,8,3,-1,2,10,0
7137497891,-8,-14,-4,-7,-13,-15,-10,-3
7137497891,2,-10,-12,-2,10,6,-3,-5
7137498591,1,-2,-5,-7,-5,8,6,2
7137498591,-5,-5,1,-1,-3,-7,-5,-2
7137528603,-5,-4,1,-2,5,3,2,-1
7137528603,-4,6,5,4,-10,-19,-6,-4
7137529290,7,7,-1,-8,-12,-14,-2,-1
7137529290,-13,-14,-1,8,17,18,3,-1
7137534728,-4,-12,-5,-5,0,-4,-7,1
7137534728,9,11,-1,4,-2,-2,7,1
7137542221,11,9,-3,-3,3,5,10,1
7137542221,-11,-3,-9,-3,-7,-14,3,-1
7137557912,-11,-1,-9,-3,-6,-12,-8,-4
7137557912,-3,-3,-2,-8,5,14,6,-3
7137558579,-5,-3,-2,-11,-6,-2,-6,-2
7137558579,12,6,-1,4,0,-2,-1,2
7137580383,7,7,10,9,5,2,2,0
7137580383,-4,-5,-5,-7,-3,-4,-3,0
7137581068,-8,-3,-8,3,3,-1,-6,-3
7137581068,5,4,3,0,-3,-1,-9,-2
7137594738,-3,0,-3,-10,-3,1,9,1
7137594738,6,2,8,-5,-4,-12,-3,1
7137602121,-12,-3,-1,-2,0,13,-4,-2
7137602121,3,-7,-4,-3,0,-4,5,-2
7137617972,-3,-5,5,10,7,8,1,2
7137617972,-2,-8,-7,-3,-5,1,-1,-2
7137618591,0,-8,-3,1,0,-15,9,2
7137618591,-2,2,5,4,2,12,9,-2
7137633607,-1,-5,-3,-5,-5,-6,-1,1
7137633607,1,2,1,1,2,5,1,-2
7137639739,0,-2,3,2,-3,-5,-27,0
7137639739,1,-1,-3,-6,-3,-6,-8,-1
7137654743,-4,1,2,2,-1,-3,-7,-3
7137654743,-4,-1,-1,0,-2,-4,1,-1
7137662232,4,-3,-2,-1,-2,2,-1,4
7137662232,-2,0,2,1,-1,2,0,-2
7137677841,6,-3,-3,-2,-2,-2,-11,-2
7137677841,-1,1,-5,-8,-4,-1,0,-3
7137678581,-16,-8,-6,3,2,-1,-3,-4
7137678581,1,-1,-3,-5,-2,-7,13,1
7137693547,2,7,4,5,-2,13,1,0
7137693547,6,1,2,-2,4,1,-2,1
7137699734,-7,0,4,-1,-1,4,3,-4
7137699734,-2,-1,0,-2,-6,-8,0,-3
7137714681,0,3,-2,-3,0,-3,-5,-3
7137714681,4,3,0,2,-2,2,1,-1
7137722163,-3,1,-2,-2,4,2,6,4
7137722163,-1,0,-4,-1,4,0,-4,0
7137737789,1,1,0,2,-1,-2,-3,-1
7137737789,-2,-6,-5,-1,-7,-5,-7,1
7137738598,-7,-4,-5,-6,0,5,4,-3
7137738598,-9,-4,4,-6,-5,-5,-4,-5
7137753611,4,-3,-18,-11,-7,-5,1,2
7137753611,3,4,-7,-9,-2,-3,0,0
7137759713,5,2,3,2,-5,-3,-4,-1
7137759713,-2,0,1,-5,-2,3,-3,1
7137774710,-6,-1,9,12,-4,-5,0,-5
7137774710,2,1,1,-1,-1,0,-42,-1
7137782216,0,4,-1,1,4,0,15,1
7137782216,-3,-4,-4,-2,1,0,-3,-2
7137797629,-4,-10,2,0,-4,-5,-8,-5
7137797629,-8,-1,2,2,4,1,35,6
7137804708,10,6,-2,2,1,-1,-7,-3
7137804708,0,0,0,5,-4,-11,-13,-4
7137813595,5,3,-4,-2,12,-1,16,0
7137813595,-11,-1,-1,-3,0,14,-1,-4
7137819720,-4,-8,-4,-8,-7,0,1,-1
7137819720,-3,0,-3,-6,-4,-5,5,-1
7137834642,11,9,3,1,-3,-4,-3,4
7137834642,7,-1,0,-1,-2,-9,-5,-1
7137842244,-16,0,-1,-2,-1,-1,-6,-6
7137842244,-2,2,1,7,5,-2,7,3
7137857911,-6,-2,0,-3,-2,4,-7,-4
7137857911,5,2,1,6,1,-8,-14,3
7137858588,5,-3,9,7,8,8,4,0
7137858588,-4,-5,-12,-16,-13,-5,-10,-4
7137873546,-2,-4,3,6,20,7,-2,3
7137873546,-2,7,6,4,-1,6,11,-2
7137879738,2,-2,-1,-2,-1,-12,-7,-1
7137879738,5,-5,-6,-1,3,6,1,1
7137894688,-8,-13,-6,-22,-17,-8,-2,-4
7137894688,-19,-23,-6,-15,-18,-17,-8,-8
7137902118,11,1,6,12,9,9,8,3
7137902118,-3,-11,-5,11,12,15,-4,0
7137917859,-1,-1,-4,5,5,-3,-7,-2
7137917859,-1,0,-3,-4,-4,-4,-33,2
7137918539,-7,-6,-7,-25,-16,-14,-4,-4
7137918539,-1,-9,-9,-6,-5,15,12,-4
