timestamp,emg1,emg2,emg3,emg4,emg5,emg6,emg7,emg8
6704647553,1,10,-1,-17,-2,-1,-1,-1
6704647553,1,-3,-2,20,6,3,0,2
6704648334,-4,-12,-2,-4,-5,-2,5,-3
6704648334,-2,5,-1,-9,2,1,-2,0
6704649974,1,5,-1,10,1,-3,-2,-1
6704649974,5,0,4,-4,-4,-1,-4,-1
6704652575,3,6,2,7,4,-1,2,5
6704652575,-3,-1,5,7,-6,-5,-3,-2
6704653406,-1,-3,-8,-25,-2,-1,-1,-3
6704653406,-6,-8,-8,-11,-9,-7,-4,-3
6704669049,-7,6,4,10,7,9,1,-4
6704669049,1,-3,-4,11,4,-3,-3,-2
6704677099,2,-8,3,-5,-8,-3,1,1
6704677099,1,5,3,4,5,1,1,-1
6704682737,8,0,-2,-15,-13,-6,-6,-1
6704682737,-6,-7,4,0,1,-5,-7,-2
6704691317,-8,-4,-3,13,7,4,11,1
6704691317,2,7,-6,-10,-5,5,-13,-4
6704706437,-2,-6,-1,-2,2,-1,-3,0
6704706437,-3,-8,0,-9,-5,-4,-1,-1
6704712710,0,1,0,12,-2,-4,-2,-3
6704712710,2,-2,-1,3,3,0,2,6
6704727823,-2,-7,-3,1,1,0,1,1
6704727823,-12,-10,-4,-8,-7,-2,-5,-8
6704736377,-4,-6,-9,-6,-4,-2,-7,-4
6704736377,1,2,14,-1,-3,-1,7,1
6704775896,-6,4,-5,-2,0,-1,-1,-3
6704775896,1,6,0,-1,-1,0,1,1
6704776820,-6,-13,2,2,0,-3,-6,0
6704776820,5,5,3,3,0,4,-6,3
6704777526,3,7,2,-3,0,1,1,1
6704777526,-5,-6,3,6,1,1,-1,-3
6704780621,1,-4,-5,2,-2,3,-1,-4
6704780621,-5,13,-3,-2,-3,-6,3,-2
6704787533,-8,3,-2,-6,-5,-5,-4,-1
6704787533,8,-3,-2,1,-1,1,-1,1
6704795693,-7,10,-1,-3,-1,-6,-3,0
6704795693,0,-12,-8,-6,-3,-2,-1,-3
6704802516,8,-20,2,3,-1,2,3,0
6704802516,-4,2,4,1,1,0,4,-1
6704818242,0,8,0,-2,-2,1,-5,-1
6704818242,-1,-12,0,-1,-1,-2,7,-5
6704825090,-11,-7,-6,-4,-1,-3,3,4
6704825090,-1,11,-5,-4,-2,-4,-7,-1
6704832546,7,0,-4,-3,-2,0,-1,-1
6704832546,-6,0,2,1,4,1,11,1
6704847546,1,13,3,4,-3,-1,-8,-4
6704847546,-3,-9,-4,-3,-2,-12,-6,-10
6704855708,0,-6,1,-3,-2,7,15,8
6704855708,-4,10,7,-1,-6,8,-48,-3
6704862449,13,2,-2,3,6,-4,11,7
6704862449,-2,-8,-2,3,7,6,-2,6
6704878230,3,0,0,2,1,-11,-12,-18
6704878230,-3,6,-7,-7,-9,1,-3,13
6704885057,-15,-6,4,2,1,6,25,-16
6704885057,10,-4,-3,-2,-6,-3,1,1
6704892523,-48,8,-7,-19,-11,-10,4,6
6704892523,26,-7,9,28,21,-5,5,-14
6704907435,14,8,-9,-7,-8,0,-64,30
6704907435,12,-2,1,-10,-3,3,29,-26
6704915595,28,37,2,10,5,-4,-8,-7
6704915595,-41,-12,-1,0,-5,-4,6,-10
6704922333,0,-27,3,-5,-1,-1,-2,7
6704922333,-19,34,1,-14,5,-1,-22,7
6704938120,-1,-29,33,35,-3,5,2,12
6704938120,-10,61,-13,-19,8,-4,-10,-5
6704945642,40,104,48,32,-18,-5,21,-4
6704945642,-9,-61,-43,-104,4,1,-9,-7
6704952459,53,20,-14,-49,-3,8,14,20
6704952459,-15,72,51,-18,-17,-2,17,6
6704967469,-51,-66,7,-63,-15,-1,1,-21
6704967469,7,78,50,115,25,17,9,0
6704975686,-5,75,-89,-20,2,-1,-9,2
6704975686,38,-26,11,20,10,2,4,11
6704982470,-11,-82,-25,-20,-17,-9,7,-9
6704982470,6,60,17,-3,-31,-13,5,18
6704998169,-25,-55,-9,7,11,-11,-46,-44
6704998169,-4,-5,-5,30,-5,22,69,20
6705005020,12,28,-5,15,18,-7,4,-16
6705005020,10,-43,-22,-3,-3,8,21,15
6705012473,-8,32,11,7,-5,-4,1,10
6705012473,6,-19,-3,-28,-20,-24,-6,-5
6705027506,-2,-22,-26,13,7,4,-15,-3
6705027506,-13,-22,5,-4,16,6,12,-18
6705035621,-2,-17,40,-12,-3,-1,-12,5
6705035621,1,-40,-31,12,7,7,-7,-11
6705042564,-1,1,-4,-2,-11,-7,0,12
6705042564,5,-7,-12,-21,-22,-22,-29,-10
6705058169,-4,-6,9,19,9,12,12,-4
6705058169,0,-45,-15,4,1,6,0,3
6705065032,4,18,4,94,17,1,4,7
6705065032,-3,-7,-14,-81,-25,-6,-11,1
6705080736,-4,-32,-7,13,-3,-7,12,-2
6705080736,-1,-8,-8,-2,3,0,-15,-8
6705087481,-3,1,-12,-6,15,4,-21,-6
6705087481,-8,-8,10,18,8,1,2,0
6705095659,2,-53,12,7,-8,-4,11,1
6705095659,1,17,-23,3,-8,-11,-19,-6
6705102565,-6,21,2,-24,-5,-3,5,-2
6705102565,-17,-22,-16,21,-8,-6,-9,-4
6705118133,3,19,-13,-17,14,2,3,0
6705118133,11,11,6,25,-7,-2,-2,4
6705125040,0,10,9,-41,16,9,6,2
6705125040,9,12,-24,-16,-3,-2,0,4
6705140650,0,22,15,-2,0,2,5,-2
6705140650,-2,12,7,-3,-11,-11,-12,-4
6705147440,-2,-2,-27,10,3,-6,-5,-2
6705147440,7,35,21,34,1,8,-3,3
6705163083,5,13,-37,-62,1,2,5,5
6705163083,-11,-5,3,-11,8,0,-4,-4
6705164062,2,16,12,-9,-15,-11,-7,-4
6705164062,-8,-21,2,17,-5,-4,-2,-3
6705178917,-2,-19,16,30,-4,-7,2,0
6705178917,-12,-23,11,-14,7,-5,-17,-4
6705184889,0,-4,3,5,-13,-7,-2,-6
6705184889,1,3,1,3,0,-1,2,2
6705201357,-4,-11,8,46,3,2,-1,-4
6705201357,-4,-16,-29,-66,-6,-6,-11,-7
6705207408,-9,-14,2,17,12,3,3,1
6705207408,-2,-13,-4,-6,-6,2,-19,-4
6705216388,10,34,11,4,-5,-7,5,4
6705216388,-16,-8,8,3,-8,5,-1,-6
6705222497,0,-8,-10,-18,-11,0,1,-2
6705222497,-12,-21,-16,-20,4,-5,-2,-2
6705238909,-1,-2,-6,5,-6,1,-6,-2
6705238909,12,14,14,23,12,2,7,7
6705245085,-14,-11,-1,-31,-11,-1,-1,-10
6705245085,-3,-11,6,17,5,1,17,1
6705261385,1,-7,5,-2,-8,-4,-17,-1
6705261385,-1,11,17,0,0,-5,0,-5
6705267554,-1,-10,-1,10,2,3,2,0
6705267554,11,7,-1,4,0,-1,3,4
6705276347,-13,-24,-5,-10,-3,-3,-1,-5
6705276347,2,4,-7,-8,-6,-4,0,-2
6705282512,1,19,8,9,2,1,-1,-1
6705282512,-5,1,4,6,4,-5,-44,-1
6705298902,-7,-17,-5,-9,-1,6,12,-1
6705298902,6,-17,-8,6,3,6,4,8
6705305058,-2,-10,-1,-1,-1,-4,6,-7
6705305058,0,3,3,-5,2,1,14,4
6705321437,-6,8,-14,-9,-5,-5,-4,-3
6705321437,-7,9,-2,13,11,5,5,-1
6705327534,15,4,-5,-7,-1,2,-1,6
6705327534,0,8,-3,0,2,-2,-25,-3
6705336373,5,2,10,10,2,6,17,1
6705336373,-4,-1,-7,-3,-4,-4,2,-3
6705342439,15,14,5,-7,-1,1,-2,1
6705342439,-12,9,17,12,0,1,11,0
6705358951,-3,-58,-12,12,12,2,-9,7
6705358951,0,60,4,1,-1,-6,-9,1
6705364960,-8,-32,-9,-9,-3,0,2,-1
6705364960,-1,29,3,-6,-5,-1,3,-9
6705381390,-28,-55,-16,-9,-1,-4,7,-8
6705381390,3,-23,9,27,4,5,-9,9
6705387438,30,-36,28,11,7,6,0,6
6705387438,42,103,51,-7,8,3,11,13
6705396432,-17,-16,-81,-78,-29,-4,-32,-13
6705396432,20,26,-7,30,-1,-11,19,-3
6705410060,-9,-69,0,-17,3,13,-12,9
6705410060,-44,6,-21,41,11,4,3,-22
6705418909,16,100,54,-14,0,-2,-25,-6
6705418909,20,-34,-19,-101,-23,3,22,6
6705425081,25,75,-16,37,-6,-16,15,19
6705425081,91,42,71,55,-1,9,23,37
6705449501,-103,-101,57,55,17,-1,1,-45
6705449501,29,62,-20,6,3,-2,-22,-7
6705450484,-1,65,91,14,21,7,-8,1
6705450484,-25,-120,-38,-79,-48,-14,4,-2
6705456378,25,-53,-67,-65,29,-5,20,16
6705456378,-18,25,-31,-17,8,16,-10,-9
6705470041,-93,-95,-30,-9,-13,-15,1,-23
6705470041,64,-48,59,-18,2,11,-3,17
6705480356,-10,-22,-48,-30,-31,-44,-8,-10
6705480356,11,18,-17,-79,15,55,-15,13
6705485111,11,-15,47,98,-10,-30,-51,7
6705485111,-31,-24,-79,-73,25,-35,-57,-18
6705501369,42,6,27,14,-22,27,12,14
6705501369,-14,-68,17,24,1,-24,-28,5
6705507497,19,55,-42,49,-11,5,-31,33
6705507497,-15,13,20,-12,-3,-27,2,-25
6705516382,8,42,-3,38,5,-3,15,-23
6705516382,-7,-29,-3,32,-3,-35,23,17
6705530015,-2,25,-11,-31,2,34,-16,-10
6705530015,-18,-29,-5,19,-11,-29,16,18
6705538919,4,31,6,13,17,24,-50,-16
6705538919,-13,-9,49,21,-5,0,26,-12
6705544992,2,-12,-38,-62,7,7,54,-11
6705544992,-17,10,-11,18,-2,-5,8,5
6705561347,18,43,50,33,-20,-12,1,11
6705561347,-7,-4,19,42,18,0,-18,-6
6705567527,-9,-5,-23,-63,-23,-14,8,-17
6705567527,6,0,-36,-11,20,25,4,-5
6705576348,4,28,15,12,9,6,2,13
6705576348,-17,-30,-35,-16,-21,-12,7,-8
6705590062,-2,10,21,57,-4,-6,-2,-12
6705590062,-6,16,-11,57,47,36,13,2
6705598939,4,-2,7,-14,-10,-1,11,15
6705598939,-3,-10,-23,-50,5,6,-6,-5
6705605042,3,12,25,19,0,-6,-4,-6
6705605042,-3,5,-25,-54,-29,-7,-13,-2
6705621438,-11,4,3,38,-5,-7,1,1
6705621438,0,-12,0,25,10,8,1,-6
6705627507,11,12,6,-26,15,5,6,0
6705627507,-9,-13,10,12,-2,-1,6,-6
6705636356,11,14,-6,-47,16,9,13,10
6705636356,5,5,37,7,-17,-10,-5,-3
6705650054,-5,-7,-20,28,3,-6,-1,-3
6705650054,-17,-28,-14,-46,-11,9,-3,-9
6705658918,5,3,11,6,0,-1,-1,6
6705658918,3,13,13,3,-7,-5,-12,-2
6705665064,-3,21,6,-7,-8,-4,6,-6
6705665064,-16,-9,7,33,-6,-5,-6,-7
6705681433,14,6,5,3,3,10,10,10
6705681433,-11,3,6,14,1,8,4,-1
6705687472,-1,-8,-8,-23,-1,-6,0,-13
6705687472,-6,-19,0,-6,0,-4,-3,6
6705696414,7,-4,-6,16,4,7,9,-1
6705696414,-2,-4,0,-2,-4,-7,-21,-2
6705709985,5,-7,-1,-20,8,2,7,1
6705709985,-5,7,20,23,0,10,6,-1
6705718917,-13,-23,-3,-7,-8,-8,-4,-6
6705718917,-2,-3,-6,0,1,5,-3,4
6705724998,-2,2,-9,-17,-3,-2,-13,0
6705724998,-1,-9,-6,17,-5,0,2,-1
6705741377,-2,12,9,-1,-8,-9,-10,-3
6705741377,-4,-3,-4,-8,-1,-7,7,-1
6705747445,-2,-2,1,-17,-4,-5,-21,-3
6705747445,4,20,-4,5,-4,3,29,4
6705762518,-9,-13,3,-3,-2,-3,-1,-3
6705762518,7,12,-4,-1,4,-2,26,-6
6705770059,-3,6,1,-6,-2,5,-42,2
6705770059,-6,-1,2,6,-3,-1,4,-4
6705786946,13,20,-2,-5,-6,1,1,6
6705786946,-10,-6,3,12,2,-3,5,-7
6705787751,12,-6,-18,-24,-2,1,8,0
6705787751,26,8,3,13,-2,-12,-17,-8
6705801383,-2,21,1,2,8,14,39,14
6705801383,12,-14,12,16,2,-9,-21,-3
6705807457,-14,13,1,-3,-1,8,18,1
6705807457,-5,-20,10,24,-3,3,-11,-5
6705822496,26,-16,-11,-13,0,-8,-1,10
6705822496,-26,61,-7,0,-9,-5,-5,-8
6705830041,5,-61,14,-18,-2,-5,4,10
6705830041,7,32,-4,-17,-2,0,-5,-13
6705845608,44,69,13,16,0,-2,-5,15
6705845608,-17,-9,-32,-10,2,12,6,-7
6705846324,-9,-81,50,38,4,1,-20,10
6705846324,-27,32,-29,-11,5,8,2,5
6705861341,-58,-73,46,-2,-6,-7,-25,-18
6705861341,11,16,-53,10,-8,-10,-5,2
6705867516,14,-50,-59,6,0,2,-38,-17
6705867516,-7,54,8,-32,-2,0,18,8
6705882442,36,-98,6,0,-3,-11,-27,18
6705882442,-35,23,16,-17,-12,4,1,-19
6705889950,8,61,-56,41,-6,0,9,-9
6705889950,-1,-4,-1,-51,3,3,-12,0
6705905632,-34,13,-46,10,3,-24,-17,-20
6705905632,19,37,50,-48,-18,35,-6,8
6705906431,13,48,-12,-62,11,-26,20,2
6705906431,28,-23,26,34,12,20,27,7
6705921318,2,44,50,-29,0,0,-11,-3
6705921318,20,-6,-75,-105,-17,-22,-5,-12
6705927405,-70,-5,-3,65,1,-13,53,24
6705927405,14,-34,3,20,-12,95,-52,-19
6705942448,15,4,-54,-4,44,-9,-11,7
6705942448,14,-40,11,-22,-10,-23,-22,-8
6705950013,23,23,3,-21,-4,-15,2,33
6705950013,-35,-33,0,36,-12,-40,9,-28
6705965633,-28,-11,-10,30,-17,3,57,-15
6705965633,21,-5,47,52,22,23,-15,14
6705966416,14,-14,-24,-26,21,17,-27,5
6705966416,-7,-5,26,-5,0,-23,-15,18
6705981351,4,26,-2,-8,-11,34,5,-9
6705981351,1,6,0,12,0,-52,5,2
6705987413,-9,19,43,4,-4,15,40,-14
6705987413,3,-5,-9,12,-3,-17,-16,-6
6706002419,-21,8,-14,-25,-3,-18,0,-9
6706002419,-1,-7,20,14,3,6,11,16
6706009983,17,-6,6,47,21,19,-16,-10
6706009983,-3,5,-25,-64,-16,-31,-1,-4
6706025678,12,-8,15,30,-2,-6,-1,9
6706025678,-5,-6,28,10,-5,15,13,4
6706026325,-8,0,-16,-5,-17,-5,5,-12
6706026325,7,-8,-9,11,19,3,5,5
6706041374,-5,13,14,7,0,12,6,2
6706041374,-6,-1,-8,36,1,-3,3,3
6706047331,0,13,1,-30,6,-5,-6,-19
6706047331,3,26,-13,-1,-8,-12,21,9
6706062392,-11,-4,-10,37,-18,8,-26,-11
6706062392,-1,-25,-6,-48,34,-6,5,0
6706069895,10,-3,2,-37,-22,3,8,2
6706069895,-5,-4,19,17,13,-3,2,-1
6706085687,-5,-8,-22,22,3,5,4,2
6706085687,-3,-23,9,43,-36,-11,2,-4
6706086367,-7,-8,2,-55,50,8,-9,-6
6706086367,2,-15,-9,50,-24,-6,-10,1
6706101372,-7,4,-9,-17,7,0,-3,-4
6706101372,-4,-4,-24,-25,-5,2,-15,1
6706107490,4,23,17,34,-16,1,-1,-2
6706107490,-12,-20,-5,29,-7,-6,-3,-2
6706122520,16,-2,-11,-19,17,-1,11,7
6706122520,-1,-9,0,29,5,6,5,0
6706130088,-8,-26,-6,-17,-17,-11,-4,-3
6706130088,-7,-6,-3,-33,10,-4,4,-4
6706145622,8,-3,11,-8,-8,9,5,3
6706145622,8,3,0,2,13,-4,3,5
6706146301,-13,1,5,4,-25,7,-5,-8
6706146301,8,-11,-21,-1,9,-4,-1,0
6706161338,4,-4,12,-6,-1,5,11,3
6706161338,-12,-10,-7,7,-1,2,-22,-12
6706167394,-2,-4,-9,-11,-9,-15,4,4
6706167394,2,-5,8,-6,-2,6,1,1
6706182415,-6,-17,-16,-17,-2,-16,-16,-11
6706182415,-5,-7,7,-2,1,10,16,2
6706189958,3,-10,11,8,-4,1,-20,1
6706189958,-3,-16,-9,-20,1,5,-11,1
6706205633,4,12,10,0,1,2,6,0
6706205633,7,-4,-1,8,2,-7,-33,7
6706206324,-11,1,-1,-2,-4,12,11,0
6706206324,-2,20,14,7,2,-15,25,-21
6706221339,-1,-8,-1,-16,-11,-7,-48,4
6706221339,5,-2,-3,2,-3,-2,56,4
6706227360,3,34,18,6,-3,13,53,15
6706227360,-13,3,-3,8,14,16,65,-2
6706242462,2,4,-6,-11,-8,-17,-13,-12
6706242462,10,9,2,-2,0,11,39,-3
6706249970,-11,-11,-1,0,2,-1,-61,2
6706249970,-10,-14,-3,1,-8,-4,2,-5
6706265612,3,4,-1,-4,-4,-3,1,-1
6706265612,-22,18,-3,16,5,0,-33,-4
6706266294,16,7,-7,-5,0,-6,11,-7
6706266294,24,-5,16,1,-14,-6,-37,9
6706281363,-1,3,-26,-13,6,4,1,1
6706281363,0,-5,-2,-3,-1,4,-8,1
6706287451,-19,11,15,11,-1,-4,14,-1
6706287451,15,-6,6,12,0,-6,-24,-1
6706302380,-23,-6,12,-18,-6,-3,1,-6
6706302380,-31,-25,-53,-29,-7,-4,-3,-14
6706309960,42,47,3,4,-2,-6,2,1
6706309960,-8,-63,13,-3,-3,7,5,12
6706324960,-29,49,33,30,12,5,-8,-4
6706324960,37,-53,-8,-35,-3,-1,-14,2
6706332482,-25,-48,-35,7,-5,-14,-11,-20
6706332482,53,123,57,-14,4,6,-5,19
6706341295,-60,-70,-60,-22,-18,-13,4,-5
6706341295,0,-17,24,22,1,3,-2,6
6706347507,16,72,41,-16,8,-1,0,1
6706347507,-7,-89,-48,10,-4,-2,-8,-6
6706362436,11,105,20,-2,1,3,4,-6
6706362436,20,-7,35,10,17,12,16,16
6706369963,-21,-83,-11,3,-17,-8,1,-3
6706369963,15,44,26,-1,-6,-3,-23,-5
6706384957,27,-14,-10,-5,30,11,0,13
6706384957,-37,-40,-2,-18,-21,-17,-15,-21
6706392457,8,56,7,-37,-11,-2,2,2
6706392457,-25,-64,-19,30,1,-9,7,-8
6706401363,21,-20,-7,-17,-5,2,-35,14
6706401363,22,-47,3,-2,-2,0,-24,-3
6706407410,-9,7,-4,24,19,5,-15,1
6706407410,-32,-49,-48,-29,-21,-21,-16,-6
6706422511,12,59,63,33,2,9,22,-9
6706422511,3,61,-20,-63,-7,2,16,-4
6706430003,-12,-43,-3,54,13,-2,-51,11
6706430003,7,11,-16,-24,13,21,-26,7
6706444985,4,-21,3,16,-8,-17,-1,-20
6706444985,1,8,-2,-1,-9,5,82,16
6706452371,1,-7,-14,-9,-12,-2,-4,-20
6706452371,-10,6,13,2,-9,-1,-19,4
6706468032,23,-18,-18,-6,11,8,11,6
6706468032,-36,8,-9,18,-2,-6,-19,-7
6706468806,22,-27,2,10,-9,-1,11,-2
6706468806,-21,25,-2,6,9,6,12,0
6706482478,-3,-31,-23,-10,3,0,-17,0
6706482478,5,5,-4,28,10,4,-2,-2
6706489936,5,12,9,-3,-8,-18,4,4
6706489936,-11,8,3,-11,-11,1,-11,-6
6706504935,9,4,0,9,-7,-1,-3,-2
6706504935,-7,10,12,7,12,-3,-2,0
6706513156,-18,-14,-17,-19,4,1,27,0
6706513156,14,27,9,-8,-3,-7,6,-6
6706528100,-1,-10,-6,-21,-14,-2,10,3
6706528100,-10,28,2,34,13,6,0,-4
6706528807,8,8,9,4,12,4,3,-1
6706528807,5,31,-10,-30,12,14,19,5
6706542459,-5,-9,-1,6,-9,-3,8,5
6706542459,-6,1,10,22,-16,-10,-22,-6
6706549938,-13,-40,-13,-29,3,0,-6,-6
6706549938,-10,-5,0,5,-1,-6,5,-6
6706564967,14,-5,23,28,-28,-15,6,-1
6706564967,9,4,-17,13,42,6,-8,-1
6706573168,7,1,5,15,-2,-12,-4,1
6706573168,-19,-33,-16,-18,-2,0,5,-6
6706588089,-9,-14,4,17,-13,-1,6,-1
6706588089,5,-3,3,-23,6,2,-6,3
6706588852,-9,-1,-9,9,-5,7,2,1
6706588852,8,-2,-7,-2,1,-9,22,-1
6706602423,-13,-8,-14,-18,1,7,-12,2
6706602423,4,13,10,6,-12,-12,-2,1
6706609949,-6,-17,-4,-17,-2,17,5,-2
6706609949,12,6,-15,-5,-9,-5,1,3
6706624990,-16,-15,-2,-7,2,-3,19,-12
6706624990,-4,-19,-13,-8,-11,-7,-16,-1
6706633106,-6,10,-14,-10,-5,3,-10,3
6706633106,9,21,22,20,6,-3,-30,3
6706648149,-3,-17,5,-1,8,6,11,0
6706648149,4,-21,-7,-9,-11,-8,-18,-2
6706648799,-3,-18,1,1,-2,-3,-1,2
6706648799,-5,-15,6,5,2,-1,-3,-3
6706662497,1,-2,1,-18,1,-2,-8,-3
6706662497,-7,5,4,15,-7,2,4,0
6706669986,7,7,-4,-5,4,3,1,2
6706669986,4,7,5,2,1,-6,4,-2
6706693790,0,-8,-9,-8,-1,-3,14,-3
6706693790,9,-2,1,0,-7,3,-11,1
6706694475,-1,14,6,6,8,2,3,3
6706694475,-14,-4,-11,-10,-8,-5,7,-5
6706708129,4,19,5,7,12,2,4,4
6706708129,14,-16,-10,-5,-5,-4,-4,-8
6706708817,-23,1,-2,-2,-3,1,9,-6
6706708817,-3,9,6,-10,-5,-6,-14,1
6706722482,2,-21,-20,-7,1,1,-5,-2
6706722482,6,24,29,20,-4,-2,9,1
6706729924,-1,-11,-24,-31,-2,1,11,3
6706729924,-10,-39,-22,14,1,-2,-1,-8
6706744979,-31,12,14,5,4,1,2,0
6706744979,-20,-13,-7,-9,1,1,-3,-5
6706753134,26,-21,16,11,-4,-3,0,2
6706753134,-17,23,-9,-1,-5,-4,-11,-4
6706768123,13,22,12,-14,-1,4,9,6
6706768123,-13,13,-15,2,1,-5,3,-12
6706768819,2,4,-5,0,-6,-4,-3,2
6706768819,48,58,20,-3,-1,3,15,8
6706782497,-25,-87,2,1,-9,-9,8,-2
6706782497,17,84,-9,-63,4,10,-3,0
6706789961,-56,8,-23,4,1,-2,-4,-15
6706789961,26,-17,-35,12,-7,1,-2,1
6706804970,-6,48,2,10,-8,-8,-11,-6
6706804970,-33,-60,8,2,-3,-5,-3,0
6706813139,11,61,9,14,-7,-1,-10,-6
6706813139,-18,-59,-3,-28,-1,0,-7,1
6706828058,6,-21,12,30,-2,2,-4,0
6706828058,7,4,-73,-32,2,1,3,2
6706828877,13,11,4,1,7,-8,1,-16
6706828877,-15,15,12,9,4,21,34,19
6706842389,23,64,6,-21,5,3,-16,0
6706842389,-21,2,30,26,11,3,3,-1
6706850011,11,17,7,-9,-13,-8,-1,0
6706850011,29,-11,6,-3,-3,-5,-9,-4
6706864864,9,-26,-16,-3,-7,-8,-8,5
6706864864,3,-7,20,3,-7,3,-1,5
6706873045,-1,-10,-12,-25,0,-2,-5,-1
6706873045,-20,30,16,7,7,-5,-9,-9
6706888096,7,-4,8,15,-15,0,-2,3
6706888096,-1,-5,3,14,2,-5,-8,-1
6706888750,19,-18,-6,-24,-8,5,14,9
6706888750,7,-18,7,42,17,-1,5,1
6706910585,-15,13,-1,3,8,1,-25,-8
6706910585,-2,-10,23,1,36,-6,28,11
6706911321,14,14,3,-23,-48,4,-5,-3
6706911321,-16,6,-4,-13,1,-11,-6,3
6706924746,10,15,0,10,7,15,-5,-1
6706924746,7,1,2,-12,-3,-9,-1,-10
6706933127,-23,-31,6,35,18,11,22,6
6706933127,-1,-2,-12,-12,-3,-9,-20,-7
6706948094,-2,-17,-4,-6,-4,-1,16,3
6706948094,11,6,-2,5,-32,-15,-10,-5
6706948843,-17,-11,14,-3,15,7,-3,-2
6706948843,1,16,-5,-24,3,5,6,-2
6706970623,-4,-8,-8,-14,-1,-7,-7,1
6706970623,6,-1,-8,7,-19,-3,-14,1
6706971317,0,3,10,28,2,-1,-4,1
6706971317,-8,-11,0,-17,13,-1,1,-3
6706984908,3,2,0,11,13,11,-4,-3
6706984908,7,11,5,0,-15,-4,-1,2
6706993058,-6,-9,-7,-5,-3,-1,-10,1
6706993058,-9,4,13,14,6,6,9,-3
6707008165,16,45,9,17,-14,-9,1,2
6707008165,-17,-1,5,14,16,9,1,-4
6707008808,19,32,3,-7,-4,-19,-8,1
6707008808,1,9,-16,-23,-2,20,4,5
6707030607,-1,-6,-8,3,-3,-17,1,-1
6707030607,8,-17,5,11,12,10,18,4
6707031336,-2,-14,1,-1,6,-1,-7,-1
6707031336,-7,-2,-5,17,-9,-11,-6,-4
6707044945,-11,-30,1,-22,0,3,-1,-7
6707044945,4,-7,-4,-6,-14,-8,-7,-1
6707053107,-1,-16,-12,-5,-13,-5,-3,-3
6707053107,-1,2,17,9,3,11,9,2
6707068044,-12,-23,-9,-23,6,4,1,-6
6707068044,6,3,-7,-1,-1,3,-3,6
6707068882,-5,-8,-6,-2,10,-5,-1,-2
6707068882,6,-9,-9,8,-5,3,-1,1
6707090638,1,18,5,1,-1,-2,7,-1
6707090638,-3,-1,-8,-7,-1,-11,-8,-2
6707091305,-4,2,7,6,3,11,1,0
6707091305,0,4,-8,0,-10,-12,-12,-5
6707104940,3,-6,5,1,4,0,24,4
6707104940,-8,-4,-3,-5,-7,4,-20,-2
6707113039,13,-10,-5,-5,-5,-3,26,2
6707113039,-11,-9,8,8,4,0,-2,-3
6707128093,3,-20,-16,-12,9,1,-9,-1
6707128093,0,-10,-6,2,-5,0,4,-2
6707128821,-8,-4,0,-2,-3,-10,-21,-2
6707128821,-1,-5,-3,-9,-11,-6,4,-1
6707142459,3,3,1,-7,-12,-13,16,-4
6707142459,-1,2,4,19,15,10,31,4
6707149946,4,-6,2,0,8,12,-11,2
6707149946,2,-13,-5,-1,-4,1,-1,0
6707164968,-17,8,-3,-5,-7,-8,-5,-5
6707164968,1,7,1,-14,-11,-7,-28,-3
6707173102,-2,3,3,2,-2,-3,-1,-2
6707173102,15,9,5,4,-4,-5,3,2
6707187992,9,17,-6,-2,-1,2,-12,3
6707187992,-30,-8,-4,-15,-4,-1,-9,-3
6707188981,-1,-4,-5,12,3,-3,2,-3
6707188981,3,9,-1,-2,-4,0,2,-6
6707202408,11,0,0,3,0,1,0,5
6707202408,-3,-5,-1,-3,-3,1,-6,-4
6707209918,-15,18,8,1,-1,-1,3,-1
6707209918,-3,-4,-7,-10,-2,-11,-5,-1
6707224920,21,-4,-10,-6,-1,16,-2,6
6707224920,-12,-8,-8,-5,-7,-3,2,-4
6707233137,45,31,4,1,0,-3,-10,1
6707233137,-10,-14,10,-9,-18,-14,-9,1
6707247306,-53,-28,-44,-13,12,1,-5,-14
6707247306,-15,-4,2,-2,-4,-4,-8,-8
6707255617,-11,48,-21,-3,6,5,8,-2
6707255617,40,-42,16,32,6,8,5,13
6707262423,33,34,30,-9,1,0,2,12
6707262423,5,-64,-33,16,0,-9,-1,-5
6707269884,-46,-2,0,1,-8,-8,-3,0
6707269884,2,40,-15,16,-15,-8,-10,-9
6707284888,13,4,-31,-20,15,6,-2,2
6707284888,-28,-76,-14,11,-1,2,17,-9
6707293143,20,23,6,-20,-4,-4,-26,1
6707293143,-17,-6,10,1,8,14,11,2
6707307400,27,79,40,-19,-12,-11,-9,-1
6707307400,19,54,3,-16,10,6,7,4
6707315554,-12,36,4,17,1,-4,0,-9
6707315554,-34,-44,-10,-33,-8,-9,-16,-3
6707322427,6,-79,2,15,-1,3,11,3
6707322427,6,47,12,-9,7,6,4,4
6707329925,10,-6,32,41,-5,-2,4,1
6707329925,-13,7,-15,-24,-3,1,-9,-5
6707344935,-10,-5,-14,-10,-5,-7,-8,-8
6707344935,-3,-3,7,-9,-8,-3,4,4
6707353153,-16,-23,-2,12,6,6,8,-2
6707353153,17,2,-2,3,7,3,2,4
6707367431,-9,13,11,27,2,-6,-8,-3
6707367431,10,20,1,5,5,4,7,0
6707375631,-3,6,-11,-2,12,1,-18,-8
6707375631,-5,-7,-6,-7,6,5,13,-3
6707390501,-18,-25,4,23,-8,0,-5,2
6707390501,19,-5,-2,-17,-3,-8,-5,6
6707391286,-11,-61,-7,-11,-3,6,7,0
6707391286,-9,-17,-8,-5,10,1,-3,-11
6707404928,-7,-5,2,2,-7,-7,36,2
6707404928,11,1,12,17,-7,0,-7,-1
6707413135,2,-18,-18,-28,-27,-3,-8,1
6707413135,12,12,1,19,18,2,9,-2
6707427295,10,9,-13,-22,-3,-5,-2,4
6707427295,-37,9,13,1,-6,-6,-7,-7
6707435646,12,-12,-13,4,9,7,18,8
6707435646,-13,2,10,39,-4,2,-10,-2
6707450559,2,2,-1,-2,-8,-3,-12,-5
6707450559,4,0,-1,-19,0,-4,-4,1
6707451271,2,-14,-21,-7,5,-10,0,0
6707451271,1,22,18,-4,-19,0,-2,2
6707464914,-6,7,17,19,19,0,-8,-2
6707464914,10,34,10,11,-12,-9,-3,2
6707473134,-6,9,15,6,13,6,4,-3
6707473134,1,11,-2,-21,-6,-11,-2,0
6707487373,-3,-3,-10,13,-5,9,1,0
6707487373,10,9,8,-1,-2,-10,-8,4
6707495605,0,-19,-11,-14,5,10,7,0
6707495605,7,-5,17,34,5,-2,2,4
6707510534,-17,-16,-4,-22,-10,-1,-11,-7
6707510534,4,-3,-14,-27,-10,-2,-1,-2
6707511270,-5,-23,-3,19,5,-4,-4,-4
6707511270,-4,-3,-10,-13,-2,-4,-2,-1
6707524910,-3,11,4,1,-8,-4,-3,-4
6707524910,5,1,-4,7,5,5,6,-2
6707533068,6,7,12,-9,-8,-10,-24,-1
6707533068,-18,-20,-5,-14,-3,-5,4,-12
6707547444,7,4,-3,2,1,5,2,7
6707547444,5,0,-5,2,4,5,1,2
6707555574,-6,-3,-2,-11,-10,-6,-11,-3
6707555574,12,22,1,-6,5,-3,14,5
6707570619,0,-8,1,3,2,10,-4,-1
6707570619,-20,-25,-1,5,6,4,-5,-6
6707571318,15,1,4,-5,-4,-7,13,6
6707571318,-6,-7,-9,-16,-8,-1,-24,-2
6707584906,-3,-1,4,7,5,-3,4,-3
6707584906,16,-4,-2,-2,1,3,5,-4
6707593127,6,6,-1,0,-2,-3,11,8
6707593127,-10,-3,-3,-4,-2,2,-4,-1
6707607444,-2,-5,-1,2,-1,-11,-14,-4
6707607444,-10,5,10,0,-1,14,18,-5
6707615603,4,-6,-6,-3,-2,-4,-10,0
6707615603,1,5,2,3,6,5,14,4
6707630484,-5,-13,-1,0,-2,0,-6,-1
6707630484,0,7,-5,-1,-7,-13,-13,-3
6707631445,3,5,-1,-9,-2,-1,2,0
6707631445,-5,8,-3,-5,-1,5,1,2
6707644881,12,6,3,5,-1,-4,1,2
6707644881,-16,2,-7,4,-2,-2,-5,-3
6707653109,-8,5,18,14,1,1,3,-4
6707653109,12,0,-29,-30,-4,-4,-3,1
6707667421,-18,-2,-10,7,3,0,-4,-6
6707667421,-3,4,10,13,-4,-3,-3,4
6707675590,-12,-4,-16,-19,-2,2,-2,-5
6707675590,-3,7,14,21,15,9,6,1
6707690556,6,-10,-3,-8,2,-6,3,2
6707690556,26,30,6,-3,-4,12,-5,1
6707691274,-8,-7,4,1,0,-7,2,-1
6707691274,2,21,-10,18,-11,-12,-40,-8
6707704852,12,70,15,-16,6,11,24,9
6707704852,-61,-74,-1,14,2,-3,-1,-11
6707713108,26,11,-14,-15,3,5,9,10
6707713108,-12,-34,-6,-17,-12,-12,-11,-10
6707727394,-25,-66,13,37,-8,-10,-13,-7
6707727394,25,18,-23,-50,3,-2,5,19
6707735599,6,49,33,30,-1,14,16,-1
6707735599,-12,-89,-48,-6,4,0,-2,0
6707750608,4,88,-1,14,-4,-5,-14,-14
6707750608,1,-64,3,9,15,11,12,4
6707751266,22,-22,-25,-27,-12,-5,-5,6
6707751266,0,106,43,34,11,9,14,8
6707764921,-6,-31,-10,-37,-17,-9,-6,0
6707764921,8,21,-9,12,-6,-3,1,-5
6707773087,6,20,9,-24,-7,-11,-18,-4
6707773087,-19,-3,9,28,-4,9,0,0
6707787390,17,-2,2,2,13,3,7,3
6707787390,12,64,46,27,-9,-11,-4,3
6707796256,-29,-79,-58,-17,-1,4,6,-7
6707796256,-2,-27,-3,-20,0,-3,3,-4
6707809920,-13,-83,-27,-17,-8,-3,-11,-9
6707809920,30,67,-2,14,-5,-9,-3,1
6707818801,-1,13,37,47,8,-1,2,1
6707818801,-8,17,-20,-70,-15,-18,-13,-9
6707824782,-1,21,2,18,30,21,18,7
6707824782,10,-70,4,6,-30,4,-10,1
6707833761,-15,-14,-7,-2,6,-8,-30,-10
6707833761,18,-12,3,3,1,5,35,7
6707847406,-5,2,-1,-13,-17,-15,1,-3
6707847406,-7,1,-9,-14,9,-5,-10,0
6707856309,-8,-4,-4,-12,-10,4,-6,-10
6707856309,2,-9,7,10,-12,-8,-4,1
6707869918,0,10,6,14,1,-5,-9,0
6707869918,-22,-5,-11,-5,32,8,4,-12
6707878805,8,-1,4,11,-25,-5,12,4
6707878805,8,14,10,-5,22,8,-3,-2
6707884864,-8,-13,-16,-3,6,-1,8,2
6707884864,6,10,12,-1,-7,-4,-6,0
6707893806,-6,8,-22,-23,-12,-9,-2,-4
6707893806,-15,-22,5,-17,7,4,-1,-1
6707907394,-1,-6,-8,-10,-9,4,-7,-1
6707907394,-2,3,-2,14,10,6,4,-1
6707916249,-6,1,1,-1,13,-9,4,0
6707916249,8,8,11,36,-15,1,-5,-3
6707929872,0,0,-1,-23,-10,-18,-1,1
6707929872,-3,2,-6,-10,3,21,-5,-5
6707938927,-8,-1,13,8,1,1,4,3
6707938927,0,8,-4,-12,-10,-6,-7,-4
6707944853,-1,19,2,19,7,-1,-1,-6
6707944853,-12,-10,0,-20,-12,-11,-7,-4
6707953803,-4,-12,2,-1,11,4,-5,-4
6707953803,15,41,-21,-15,-5,-11,30,5
6707967437,-7,-13,7,-3,-11,0,-4,-4
6707967437,-5,-12,-6,-4,1,1,3,-1
6707976288,3,1,1,5,4,-3,7,-3
6707976288,-2,-21,-5,11,4,-3,-1,-2
6707989922,7,-5,0,3,-10,-1,-11,0
6707989922,16,6,-6,-1,1,-10,15,8
6707998775,2,6,1,3,5,-1,2,0
6707998775,-5,-9,3,8,-1,7,-10,-2
6708004876,1,-6,16,-1,7,6,3,4
6708004876,-9,-14,-23,-8,0,-10,-11,-5
6708013782,7,1,8,3,0,14,3,3
6708013782,-4,-17,-12,-13,-6,0,-5,-1
6708027402,20,10,2,10,7,5,9,6
6708027402,6,13,8,1,-4,-10,-5,0
6708036251,-20,-17,-2,-2,-5,-3,-18,-2
6708036251,13,10,4,-4,-1,-5,10,-2
6708049875,-17,-1,-5,-6,-3,1,-25,-2
6708049875,-1,-1,-2,-2,-4,-1,-5,0
6708058764,9,16,-9,-6,0,-6,-15,-4
6708058764,-6,-8,9,6,1,6,1,-5
6708064886,7,-4,-5,-6,-2,-6,-26,2
6708064886,-11,-9,-5,-9,-6,-3,0,-8
6708073766,-1,-20,-1,4,1,1,7,0
6708073766,2,5,10,9,0,-11,-3,-1
6708087416,-5,-4,-7,-8,-3,11,24,2
6708087416,4,3,3,1,-3,-6,-11,-1
6708096255,-1,9,0,-8,5,7,23,3
6708096255,6,2,1,12,-3,4,-11,3
6708109881,-3,-3,-13,-11,1,2,3,-7
6708109881,9,10,9,9,-1,-9,1,3
6708118772,-14,9,-6,-8,-1,-1,2,2
6708118772,-21,-16,3,-3,-2,-10,-5,-9
6708124861,13,31,5,-3,-1,13,0,6
6708124861,1,-6,1,0,-4,-5,-13,1
6708133764,37,-9,-10,10,-6,-6,0,-1
6708133764,-40,-16,-4,-13,3,5,-12,-5
6708147433,-31,22,2,-4,-7,-7,-6,-15
6708147433,8,64,7,15,11,5,9,10
6708156283,-4,-43,-4,3,15,11,3,4
6708156283,10,53,3,-1,2,4,5,5
6708169896,16,-53,2,23,-9,-11,3,4
6708169896,-1,18,14,-62,-9,-6,-12,-12
6708178745,-30,-16,-43,-23,-15,-7,-3,-2
6708178745,6,93,22,18,-2,-7,-7,-6
6708184935,-9,-66,-6,-10,11,5,22,2
6708184935,-8,-36,-21,21,0,5,-17,-5
6708193738,32,40,42,-9,7,-1,-2,3
6708193738,5,-13,-29,-13,-6,1,-7,-1
6708207290,-20,27,1,-52,-33,-14,-2,-2
6708207290,14,-5,-23,31,24,10,10,7
6708216242,-21,-22,-14,9,0,-2,-3,-7
6708216242,13,33,13,30,-4,1,5,7
6708229883,3,1,-10,-1,17,4,-5,-8
6708229883,-13,43,25,-48,-23,-7,4,-1
6708238791,-13,-12,-44,-6,-15,-15,-15,-6
6708238791,20,-24,11,6,9,7,17,9
6708253752,0,54,4,38,9,2,-16,-6
6708253752,-23,-38,-20,-15,-10,2,2,-8
6708255291,10,27,17,18,-4,-7,-7,-7
6708255291,12,16,4,-5,-11,-12,-26,3
6708267302,-11,-8,12,21,4,5,5,-1
6708267302,-16,-16,7,-9,-4,-14,27,2
6708276263,-1,-10,-6,0,11,17,-14,1
6708276263,-10,-61,-22,-13,2,5,4,-6
6708289885,13,4,3,-14,0,-34,-13,0
6708289885,12,-16,-6,22,-7,68,16,-2
6708298749,2,-10,15,8,-2,-32,-3,1
6708298749,-12,-41,0,-27,-10,-30,25,4
6708313734,5,7,4,23,11,47,-18,-4
6708313734,-13,-24,4,28,-9,-19,-7,-7
6708315263,-2,-2,-10,-42,-4,-19,-12,3
6708315263,10,-9,4,20,3,11,-4,-2
6708327389,-8,-15,-3,-4,-12,-10,10,3
6708327389,-3,-1,-8,11,2,-19,-11,-4
6708336246,-1,4,13,11,-4,14,5,-2
6708336246,-3,-14,-12,-21,7,-14,-2,1
6708349837,3,13,-3,-11,-30,-4,0,-7
6708349837,-2,-14,-4,-25,-2,-5,0,1
6708358740,-5,16,10,36,26,5,12,-1
6708358740,0,1,-6,19,-6,12,-4,-3
6708373710,-4,-5,-13,-38,9,-4,3,-2
6708373710,8,20,2,-8,-8,-8,-8,1
6708375250,-5,25,13,-11,-17,5,1,-5
6708375250,-24,-18,25,28,10,13,0,-7
6708387265,12,7,-12,-8,24,-4,3,2
6708387265,-8,6,-7,9,0,-6,-1,6
6708396277,8,-3,-3,-13,-3,7,1,2
6708396277,-3,-5,-4,-12,-21,0,-3,-4
6708409849,3,-12,11,15,3,-16,-1,1
6708409849,11,-16,-12,-19,6,14,9,4
6708418788,-2,-12,0,27,5,1,-1,-2
6708418788,9,4,-7,-16,3,-9,-9,1
6708433710,1,5,12,6,-8,-5,9,1
6708433710,-4,-3,3,4,-4,3,-10,-4
6708435266,-3,-1,13,7,11,15,10,2
6708435266,3,-6,5,-12,9,-2,-6,1
6708447410,-12,-11,-6,1,-6,-3,0,-5
6708447410,13,11,6,18,10,-1,1,2
6708456228,-6,-2,-1,-11,-14,-13,-4,-4
6708456228,4,4,-1,0,-2,4,-4,-3
6708469892,3,9,2,5,-2,-7,-2,3
6708469892,-3,0,-6,-4,4,-7,-5,-3
6708478727,-4,-6,8,-9,-5,-2,-5,-1
6708478727,-7,-9,-12,7,3,0,3,-1
6708493715,5,-4,5,12,1,3,3,-1
6708493715,3,-6,-11,-10,0,7,25,7
6708495177,4,-1,1,0,0,0,3,1
6708495177,-4,2,-3,-4,-4,-6,-7,-6
6708507421,-8,-20,-3,-4,-3,1,4,1
6708507421,-10,4,15,13,0,-5,-13,-8
6708516256,1,3,-6,-10,-1,-13,-1,-2
6708516256,11,-4,-5,1,-1,15,1,10
6708529861,1,-12,-8,-4,1,-6,-1,-1
6708529861,6,-13,-9,-6,0,0,-8,-1
6708538746,-13,-2,-3,4,-1,5,1,-1
6708538746,-7,0,-2,-3,0,-7,-6,-5
6708553750,9,-3,-6,-6,-5,-2,7,-1
6708553750,-9,3,-5,0,-3,-9,-30,0
6708555268,4,4,-1,-3,-5,1,6,-3
6708555268,11,6,-4,-3,4,9,8,2
6708567311,-14,9,3,6,3,-6,-1,0
6708567311,-6,2,1,-2,1,15,-2,-7
6708583734,-14,0,4,6,-1,3,4,-2
6708583734,0,1,-13,-10,-6,-8,1,4
6708590587,27,27,0,0,-5,-9,-4,0
6708590587,-4,14,2,-4,3,7,1,6
6708597226,16,26,10,5,-3,1,6,3
6708597226,-14,-56,-5,11,-2,-2,-10,-10
6708613702,-13,4,-2,-25,-4,4,6,4
6708613702,-12,19,-9,-4,-4,-14,4,-7
6708615188,18,-57,-5,23,7,5,-9,8
6708615188,-17,74,-4,-23,5,-2,3,-5
6708627283,16,-38,5,25,5,8,-2,6
6708627283,6,56,1,-3,-5,-9,9,-8
6708636288,10,-35,23,45,-1,-2,-17,4
6708636288,-9,-25,-15,-41,-3,-1,-1,0
6708650484,-26,37,-24,5,3,4,-5,-8
6708650484,19,78,3,-11,6,0,8,10
6708657276,-5,20,-4,-3,-7,-8,-1,-8
6708657276,8,-14,8,11,-6,-7,-5,-1
6708673737,8,26,-15,10,3,12,1,2
6708673737,-5,-26,7,6,3,-26,-2,-2
6708675261,-19,40,-18,-16,-3,20,14,-6
6708675261,-2,-73,-18,-27,-4,5,-10,-5
6708687372,6,61,18,0,-7,-26,-2,1
6708687372,-3,-19,-23,-12,-12,17,-8,-9
6708696238,-10,7,-11,-19,0,-18,0,-7
6708696238,-3,-50,-8,-5,-10,6,-1,4
6708710565,13,-40,-4,25,17,-16,16,3
6708710565,5,-23,20,12,-4,19,-36,-7
6708717279,-9,31,17,1,-4,-5,-1,1
6708717279,18,21,-18,-32,-6,-6,4,-1
6708733690,-18,4,-1,-1,-5,1,-12,-12
6708733690,5,-83,3,9,7,-5,22,14
6708735194,-6,17,9,0,3,2,-5,0
6708735194,6,27,6,34,3,-7,-5,-5
6708747387,-3,-30,2,-24,-4,-3,-1,3
6708747387,-8,-25,-6,-17,1,8,-2,-6
6708756250,13,7,0,10,8,9,7,5
6708756250,-7,14,10,2,-17,-18,-1,3
6708770608,-13,-20,-1,0,4,3,19,2
6708770608,-7,-13,3,4,-2,2,-5,-14
6708777413,15,-18,-6,-4,12,4,6,1
6708777413,19,25,5,-15,-8,-1,11,1
6708793686,-8,-15,2,5,4,13,-15,-1
6708793686,-15,7,2,2,8,-23,-8,-1
6708795247,-7,-11,-14,-25,-21,-1,6,-8
6708795247,-10,2,9,31,-4,-7,3,1
6708807291,6,10,9,24,5,14,4,0
6708807291,-4,-4,-16,-23,4,-6,5,-7
6708816220,-8,-3,-11,-11,-20,-9,-13,3
6708816220,-1,9,1,4,12,11,13,3
6708830558,2,1,6,5,-7,5,-9,-2
6708830558,2,14,-3,-9,-14,-12,-3,-2
6708837237,-4,-14,-8,-5,12,-17,-7,-4
6708837237,-9,12,8,1,-12,2,-10,-4
6708853649,-5,-10,1,-40,-13,9,0,1
6708853649,5,7,-22,19,3,0,9,5
6708855196,-3,4,1,-63,14,5,-1,-3
6708855196,-10,-5,9,54,15,-2,-7,-3
6708867403,-14,-13,4,-49,-14,6,-9,-11
6708867403,7,4,14,24,-2,-2,1,2
6708876193,9,-2,-19,-34,-18,-3,1,4
6708876193,4,17,0,46,23,1,-4,-1
6708890536,-2,-3,-6,-33,-10,-13,-2,-1
6708890536,4,-6,7,1,-8,1,5,5
6708897413,-3,-10,6,34,4,-13,-6,-3
6708897413,-1,-6,-4,-37,-9,6,-4,-1
6708913705,10,17,-3,24,5,-11,-10,0
6708913705,-18,-25,2,2,12,13,8,-3
6708915211,5,8,4,29,8,0,4,1
6708915211,1,16,0,-17,-1,3,0,3
6708927186,-9,-6,-5,-6,-12,-2,-10,-7
6708927186,2,5,-8,-7,-8,-13,-5,-4
6708936267,-2,-8,-6,1,-4,-3,-4,-2
6708936267,0,3,5,-2,-2,0,-4,0
6708950506,-3,2,4,10,6,6,2,3
6708950506,3,-3,0,2,-1,-6,4,1
6708957353,-5,-9,-2,-6,-8,-2,-8,-6
6708957353,-3,-2,7,11,4,-5,-4,0
6708973655,-1,-14,-12,-11,5,-5,-1,0
6708973655,3,-6,-9,-6,-1,-2,-5,-2
6708975241,-7,3,-1,8,-1,5,4,-2
6708975241,4,-4,-10,-20,-7,-11,-6,-2
6708987425,2,-5,2,11,1,2,1,1
6708987425,-1,0,12,2,5,7,5,3
6708996204,-4,-16,-7,0,0,0,-2,-1
6708996204,-5,0,-3,-8,-2,-4,-5,-3
6709010580,6,-3,1,8,0,0,7,2
6709010580,14,16,5,6,7,0,0,4
6709017404,7,-9,-4,-5,-6,2,-10,2
6709017404,-13,-15,0,-4,-1,-9,14,-4
6709033712,-8,-14,0,8,0,-8,1,-1
6709033712,12,3,1,1,-2,1,-16,1
6709035245,-14,6,4,4,3,21,9,1
6709035245,-9,0,-11,-6,-3,-10,-2,-8
6709047357,9,16,-2,2,2,2,3,1
6709047357,9,4,0,1,-3,-10,3,5
6709056239,-1,11,5,1,-3,-4,-5,-2
6709056239,-10,19,8,-7,-4,4,2,-3
6709070557,3,19,6,11,7,-5,4,-11
6709070557,-34,-28,4,13,5,7,-8,4
6709077361,3,6,-4,3,-3,-10,-1,-3
6709077361,15,-12,-27,-3,-4,4,-2,-2
6709093708,1,7,6,-16,-1,-1,10,8
6709093708,27,11,7,-11,-11,-2,3,-5
6709095189,-44,28,20,20,9,4,2,-8
6709095189,30,29,-19,-10,6,3,-2,9
6709107400,-20,13,0,6,-8,-4,-11,-4
6709107400,12,-39,-11,10,-1,-3,15,0
6709116226,-1,15,-10,-18,-12,-10,-25,-9
6709116226,0,-41,10,-20,6,6,2,-3
6709130515,14,21,-11,-6,-2,4,4,11
6709130515,-5,25,34,26,-1,1,4,1
6709137337,7,-6,-51,-23,-7,-8,8,-2
6709137337,0,31,25,-25,-5,5,-3,6
6709153084,-15,-78,-20,-9,0,-5,-14,-13
6709153084,14,66,-11,-22,-10,-35,-2,7
6709159789,-8,-68,-4,31,9,37,7,2
6709159789,1,-35,13,48,4,3,4,-1
6709167383,-39,-44,-28,21,22,8,1,-6
6709167383,-15,26,26,27,-13,-19,-15,-8
6709176191,25,6,-25,-32,-11,-20,-5,5
6709176191,-9,-18,-7,4,-7,4,19,3
6709190503,25,-20,15,-13,-8,-2,-21,-7
6709190503,-17,-41,23,13,1,14,-2,-5
6709197400,11,-4,-37,-23,1,-16,-7,-1
6709197400,-4,-16,15,-9,-5,18,5,1
6709213110,7,46,8,37,2,-5,0,-2
6709213110,-14,-43,-31,-50,-5,11,-3,-9
6709219859,-4,-26,24,9,-6,-9,-3,5
6709219859,-16,41,3,2,5,-16,-8,-6
6709236106,-7,-15,-11,-21,-18,-7,-13,3
6709236106,6,24,-13,11,1,1,2,-5
6709237715,-2,4,23,1,-5,-15,1,-4
6709237715,2,-16,-11,-16,1,16,2,-4
6709249833,7,13,6,24,18,9,8,12
6709249833,-14,-40,-11,-2,3,6,1,-20
6709258756,1,6,3,-11,-2,0,19,11
6709258756,13,22,7,-4,-8,-9,-20,0
6709272937,4,-20,0,-21,-11,-2,-1,-6
6709272937,-2,5,-14,-11,7,-5,-6,5
6709279830,-8,-44,14,23,2,11,4,-3
6709279830,-5,15,-9,-6,5,-15,2,-4
6709287286,8,8,-7,3,-13,1,0,2
6709287286,-8,4,-13,-15,5,-5,-5,3
6709296239,-5,12,8,-17,-2,2,-2,-1
6709296239,-8,-12,22,62,7,9,0,0
6709310561,0,17,-1,-37,14,-7,-3,-2
6709310561,14,24,-1,34,2,0,6,7
6709317327,2,7,7,6,8,12,-1,-2
6709317327,3,18,-20,-24,-8,-10,-6,-1
6709333513,2,19,20,11,-11,-1,6,3
6709333513,-5,8,7,-21,-1,4,2,1
6709339801,14,31,-1,12,12,3,-3,0
6709339801,-13,0,-8,-4,-9,-8,-5,-4
6709356243,-4,4,6,-2,7,2,5,-3
6709356243,-6,-24,-2,-1,-6,2,2,-2
6709357669,0,-9,-5,-18,9,-2,-2,3
6709357669,-7,-27,-3,10,6,3,-2,-5
6709370545,12,-6,5,13,3,1,3,5
6709370545,-1,9,-23,-44,6,1,5,0
6709377271,4,5,12,5,-13,-3,-4,-7
6709377271,1,-9,8,21,13,2,-4,4
6709393072,-10,-5,-5,-17,-13,-10,2,-2
6709393072,7,-3,4,17,2,8,-2,0
6709399866,-2,4,3,-1,-7,-10,-6,-2
6709399866,-2,0,-8,-18,-9,-9,-3,-2
6709416169,-6,6,11,-13,-17,-15,-10,-6
6709416169,-4,-7,2,15,0,0,-3,-5
6709417697,0,-17,1,3,11,6,10,4
6709417697,3,-1,-10,-18,-3,-2,2,-2
6709429813,-14,-7,-6,-2,-2,12,0,0
6709429813,-8,-4,-10,-15,-15,-7,-7,-7
6709438725,0,-4,-9,-2,2,0,-2,1
6709438725,-8,-8,0,-1,-5,-4,-2,-3
6709453035,7,6,-5,7,-3,-2,-3,-1
6709453035,-1,4,2,-8,-2,7,-2,-1
6709459864,-3,4,9,12,-7,-4,-6,-4
6709459864,0,-3,-11,-9,0,-1,0,-2
6709476153,-10,-18,-17,-21,-5,-8,-4,-7
6709476153,1,-9,15,14,4,4,6,2
6709477642,-3,-8,-6,-4,-2,14,-2,-3
6709477642,6,14,8,-2,-4,-3,-5,3
6709489869,-5,-8,5,10,2,1,0,2
6709489869,6,-11,-2,1,2,-1,7,4
6709498665,3,8,6,-6,-8,-7,-2,-3
6709498665,-6,-13,-4,2,1,-1,-2,0
6709513096,1,2,-4,-2,2,3,-2,-3
6709513096,-11,5,-6,-7,-2,-7,-4,-4
6709519861,5,7,-2,0,-6,-7,-5,0
6709519861,2,-5,3,0,5,5,5,4
6709536108,-11,-17,-9,-5,-5,-4,2,-1
6709536108,8,-9,-2,-5,-2,0,-4,-3
6709537687,-7,0,-1,4,3,-4,1,-1
6709537687,8,9,1,-3,-2,-8,-7,-4
6709549758,7,8,3,6,4,6,6,-4
6709549758,-11,5,1,4,1,2,-15,11
6709558718,-14,-3,-5,-3,-2,-3,0,-4
6709558718,1,5,3,-3,-2,1,0,-2
6709573063,8,16,2,-3,0,-2,1,1
6709573063,3,16,-6,-2,-1,-5,-6,-5
6709579849,6,24,9,17,9,-3,7,5
6709579849,-4,-15,-12,-9,-9,9,-15,-3
6709596182,17,26,12,31,3,5,1,2
6709596182,-3,-34,-10,-43,-8,-3,1,-2
6709597654,-18,-29,-30,-14,-14,-12,-12,-10
6709597654,-7,-25,-8,7,4,1,11,2
6709610288,21,-2,12,31,16,9,11,13
6709610288,-33,51,14,-2,3,1,-5,-8
6709618704,-2,-39,-6,-45,-11,-2,-5,-7
6709618704,33,-17,-5,10,10,-3,4,12
6709633053,-42,51,-4,16,-13,-10,5,-15
6709633053,-10,-116,-18,-25,-1,-5,-15,-1
6709639863,15,114,-4,4,-3,-1,1,-1
6709639863,16,-15,9,-23,0,3,4,7
6709656229,-2,-10,-8,1,-5,-8,-14,-3
6709656229,9,-1,19,3,-11,-3,5,0
6709657697,12,-29,28,17,1,5,2,10
6709657697,-37,-28,-34,2,19,5,-2,-15
6709669724,-7,-17,6,14,-8,-1,17,-2
6709669724,-25,17,-19,-8,-4,-9,-24,-2
6709678699,30,38,2,34,8,6,5,3
6709678699,7,45,-9,-34,-3,-5,5,2
6709693084,-2,-11,6,-6,1,4,-7,0
6709693084,20,-8,-23,23,4,1,14,1
6709699835,-21,-1,15,-26,-11,-5,-5,5
6709699835,-1,18,6,43,10,4,6,-1
6709716174,-2,17,-13,-28,-10,-6,-14,-4
6709716174,8,8,1,-19,-5,0,9,-2
6709717657,3,13,11,14,9,-1,-7,-3
6709717657,-17,2,13,-8,-8,-4,0,-5
6709729855,12,-33,-8,-14,-5,-4,-7,8
6709729855,8,8,16,30,13,7,9,-3
6709738668,-25,-46,-17,-18,-10,-9,-2,-8
6709738668,-4,-24,4,11,2,-5,-13,2
6709752991,6,-11,-9,-35,-5,11,3,-8
6709752991,1,14,1,22,1,-2,-33,-4
6709759847,-12,-10,-13,1,3,8,38,6
6709759847,7,-8,9,-3,-11,-9,-24,-4
6709776156,-5,-5,-2,-8,1,-8,9,1
6709776156,14,13,4,4,1,4,3,-9
6709777681,15,4,9,8,9,-2,-4,5
6709777681,-10,-8,-6,-13,-11,-7,5,-4
6709789825,0,1,-5,-17,1,-9,-12,-1
6709789825,-11,1,-3,20,7,12,15,-3
6709798711,5,-4,-4,2,-1,-9,-6,-3
6709798711,5,22,9,17,15,8,11,2
6709813053,-4,1,-12,-18,-5,-4,-13,-5
6709813053,-11,-13,5,23,-5,-4,5,0
6709819809,-2,-1,-8,-36,-9,2,-3,-2
6709819809,-2,3,-7,-5,-2,-3,-6,-5
6709836081,-7,-16,-4,-13,-2,4,0,-1
6709836081,1,9,-4,3,-2,-10,4,5
6709837676,6,-1,1,16,-8,-6,-9,-3
6709837676,-13,3,14,3,4,16,5,-7
6709849852,1,-8,-7,-7,13,4,10,6
6709849852,10,6,4,-7,0,4,10,3
6709858671,-6,-23,-12,21,0,-9,-11,-5
6709858671,3,-2,-7,-36,-29,-22,-1,1
6709872974,0,4,24,20,1,2,-3,0
6709872974,-2,-15,-18,-7,2,-6,-1,-2
6709879743,-6,-22,-1,-6,-6,-4,-6,-4
6709879743,-9,-11,-3,-1,-5,2,5,-2
6709896129,10,9,3,-10,0,-2,-1,1
6709896129,-1,-12,-21,-21,2,7,4,2
6709897641,-6,-16,-13,2,6,12,3,-2
6709897641,-3,-1,2,-6,-4,-8,-8,-3
6709909799,-24,-14,0,4,-5,-3,-1,-7
6709909799,19,7,3,-2,-7,-5,-2,3
6709918719,4,-2,6,-1,6,5,2,4
6709918719,-3,4,-4,0,-3,-2,-8,-3
6709932894,9,18,5,13,1,6,10,7
6709932894,-9,-1,6,-1,-3,-4,-11,-3
6709939801,-9,-11,-13,-19,-3,-4,-3,-9
6709939801,-3,-3,-2,5,-3,-3,7,-4
6709956081,19,-4,-1,7,2,3,-7,11
6709956081,-23,13,2,-10,-2,-4,1,-4
6709957670,10,-2,7,2,1,3,-4,-1
6709957670,16,12,1,6,0,1,13,3
6709969820,-30,-12,-3,4,3,-9,-11,-7
6709969820,11,-3,3,-2,-4,1,5,2
6709978685,1,5,-2,-1,-2,-4,6,-6
6709978685,16,18,3,6,3,8,-4,11
6709993031,11,-1,-3,-2,-3,-4,3,2
6709993031,-2,7,0,-3,-3,-7,1,-4
6709999799,-11,-3,-3,0,-3,14,-2,-1
6709999799,19,-4,-7,-2,0,-11,-7,-4
6710015997,3,38,19,11,1,-1,-4,6
6710015997,-23,-8,15,0,-1,5,6,-7
6710017572,-9,16,-9,-13,-4,-3,-6,1
6710017572,-11,5,-9,13,4,1,-3,-6
6710029656,-8,-12,-33,-15,-3,3,5,-3
6710029656,68,46,48,55,-7,-1,-6,13
6710038687,-8,29,-26,-53,11,-3,-1,1
6710038687,-5,-22,30,20,-15,3,2,6
6710052947,20,63,20,62,38,14,7,-2
6710052947,-28,-70,-56,-36,-17,-10,-7,-4
6710059687,-20,84,88,102,4,-4,-6,-4
6710059687,40,-93,-1,-56,28,9,19,10
6710076027,-65,66,48,63,-29,-14,-15,-19
6710076027,-14,-29,-21,-51,28,4,-5,-10
6710077639,-5,7,52,41,-7,-3,4,6
6710077639,-3,39,44,-12,-17,-7,-4,-2
6710089659,48,-20,-14,-8,12,13,6,13
6710089659,-3,-50,-95,8,-16,-12,6,-2
6710098653,27,63,-14,-91,6,5,-17,-2
6710098653,-29,25,19,48,-8,-7,-14,-6
6710112933,12,-14,-87,-91,-11,-4,-8,0
6710112933,15,42,12,-8,-13,-9,22,-1
6710119650,-15,-30,-16,21,4,11,-32,5
6710119650,8,27,-20,-28,-3,-2,7,1
6710135335,-11,-68,-1,44,-9,-4,2,-8
6710135335,-10,40,2,-57,13,7,-2,1
6710142177,11,-51,-32,11,-14,-17,-13,-10
6710142177,-27,-20,-33,-6,0,1,4,-4
6710149677,-8,-7,39,-8,-4,-12,-6,-4
6710149677,13,19,63,15,-8,1,-10,-1
6710158633,-20,-17,-50,-26,11,1,20,-8
6710158633,12,8,-25,3,7,3,-2,-1
6710172832,20,3,6,-4,7,-3,11,-2
6710172832,-8,-24,26,18,-12,17,10,16
6710179689,4,-43,3,-15,-9,-3,3,-1
6710179689,-11,-14,-14,20,8,1,-21,-5
6710195354,-5,-53,5,-6,2,4,37,5
6710195354,-12,-5,-4,5,0,-13,-20,-5
6710202200,-2,-38,7,-4,-8,-7,3,-2
6710202200,6,8,-11,-9,-12,-10,9,1
6710209672,0,-9,2,1,2,3,-16,-5
6710209672,-7,9,-3,-14,-4,2,-2,-3
6710218645,13,1,-9,4,6,1,12,2
6710218645,-12,7,7,10,0,-5,-3,-2
6710232902,-2,-2,-11,-22,-2,-3,-9,-3
6710232902,3,22,9,24,2,1,2,0
6710239681,1,1,5,-8,-6,-5,1,0
6710239681,-3,2,-1,8,-6,-2,-7,-4
6710255377,-1,21,0,-32,-13,-5,-11,-1
6710255377,-3,7,5,39,10,4,1,-1
