timestamp,emg1,emg2,emg3,emg4,emg5,emg6,emg7,emg8
6249857725,-13,4,12,-8,-7,-4,12,6
6249857725,-13,17,30,5,-6,-11,-16,-6
6249858688,-12,-17,-18,0,4,5,0,-6
6249858688,-35,-11,-6,-1,1,4,7,-3
6249859404,48,-26,-2,-3,-3,-1,-8,-5
6249859404,-64,-72,-64,-19,9,17,7,-4
6249863639,-18,10,6,2,-1,0,1,-3
6249863639,15,-25,-15,-4,6,11,6,4
6249869288,20,-5,0,2,-5,-6,-2,7
6249869288,20,54,21,11,6,3,4,-1
6249880820,-14,-12,0,0,-8,-16,-17,-14
6249880820,-22,-33,-18,-2,3,8,6,0
6249884387,17,27,15,9,7,3,4,1
6249884387,10,-25,-26,-17,-2,5,5,3
6249900795,3,24,8,1,4,1,5,5
6249900795,21,-56,24,13,1,-8,-3,7
6249908087,-18,-13,-25,-12,-5,0,-6,-7
6249908087,-7,-35,4,-1,-10,-17,-11,-8
6249915722,-5,-1,-15,-9,3,5,8,1
6249915722,6,9,0,-7,-5,-2,-8,-5
6249929513,-18,-14,-9,-3,-1,-20,-1,-1
6249929513,2,0,22,12,-3,12,-4,1
6249939347,-2,-24,-42,-10,-2,-2,-6,-2
6249939347,9,38,53,8,2,-1,4,0
6249977549,-2,-11,-66,-12,-5,-4,4,-1
6249977549,-1,25,-9,-2,-3,-4,-5,-2
6249978436,-2,36,2,1,-2,-4,-5,-6
6249978436,5,-7,16,-1,-1,-2,1,3
6249979207,-1,-5,1,2,0,1,0,1
6249979207,-6,4,12,-4,-5,-2,-3,-5
6249983021,1,-8,-70,-9,-9,-5,-1,2
6249983021,-7,-11,31,17,16,12,4,-4
6249989166,5,36,18,-10,-5,4,-4,-4
6249989166,5,-11,4,9,13,9,10,7
6249998067,-9,-27,-9,4,-3,-11,-7,-3
6249998067,2,17,-14,-6,-7,-5,1,-2
6250004184,1,9,4,5,-4,-18,-11,1
6250004184,2,-22,8,-5,-8,18,15,-3
6250020550,-11,6,44,-9,-5,-15,-6,-2
6250020550,3,30,29,5,-2,3,-5,1
6250026525,-4,-16,2,11,4,-6,-28,-7
6250026525,-1,-8,7,-6,0,-6,18,0
6250035534,3,19,2,-1,-4,19,3,1
6250035534,10,-13,-9,-4,-2,-26,9,-4
6250049048,-5,-11,17,3,8,11,-15,7
6250049048,-1,34,-20,-3,-3,7,-14,-6
6250058016,-1,14,9,-5,2,-14,-5,-1
6250058016,-17,-23,-37,-7,-4,12,0,-6
6250064012,8,11,-13,-3,-5,3,18,0
6250064012,-5,28,3,8,0,-8,-9,0
6250080502,6,-36,-23,3,1,-2,3,-1
6250080502,0,-21,34,1,-2,-14,-11,-4
6250086498,-1,-10,20,-2,3,15,10,1
6250086498,7,-28,-13,-14,-8,-9,-10,-3
6250095539,-14,-22,20,30,6,4,-2,-6
6250095539,-6,29,-38,-17,-10,-5,0,2
6250109072,1,-8,-20,-4,-1,3,2,2
6250109072,7,-9,11,-2,3,-2,4,1
6250118000,6,52,1,-4,-4,-5,-5,-2
6250118000,-6,17,21,3,4,13,3,0
6250124013,-13,-16,-69,-3,-8,-17,4,-7
6250124013,8,21,-11,2,1,0,-11,3
6250140509,-13,10,15,-7,-7,1,1,-5
6250140509,0,-46,-9,1,2,3,2,3
6250146559,2,4,37,-4,-8,2,-1,-1
6250146559,-3,27,-12,3,-4,-21,-1,-7
6250161511,1,-48,-9,-5,11,18,6,2
6250161511,-8,57,10,-4,-2,-2,-1,-4
6250169018,-2,-83,3,-3,-2,-13,-19,-2
6250169018,-10,-19,15,-3,-1,1,9,-4
6250178103,11,28,-45,2,-2,-19,9,-1
6250178103,-1,-21,-13,0,8,30,0,5
6250184000,2,-9,0,-1,1,-8,3,-1
6250184000,2,-13,26,3,-1,18,-12,0
6250199017,-13,39,14,-9,-2,-8,-3,-2
6250199017,-6,-66,-26,2,-4,-18,-1,-3
6250206519,5,49,19,-2,-3,21,0,-1
6250206519,5,33,-5,7,4,-3,7,5
6250221530,9,-70,16,-4,0,6,2,5
6250221530,5,-1,18,-4,-5,-6,-13,-6
6250229056,-8,53,56,10,2,0,3,-5
6250229056,-2,-41,-38,-2,-1,-3,-2,-2
6250238018,3,-22,19,-2,-1,8,0,4
6250238018,-5,0,-13,-1,-6,-15,-1,0
6250244030,1,26,-11,-1,4,-15,7,-2
6250244030,-3,-41,-2,-8,1,31,-9,1
6250260547,8,3,-12,-6,-3,-13,2,-3
6250260547,0,14,24,7,-2,4,-1,3
6250266533,6,-29,-12,-11,0,-5,4,-2
6250266533,-16,2,-20,3,-1,-17,-8,2
6250281538,-2,15,-14,0,2,17,3,2
6250281538,-7,-18,32,-2,-6,-6,-8,-6
6250289048,-16,-11,17,19,5,4,5,-2
6250289048,7,-16,-16,0,0,-5,1,1
6250298702,-1,10,39,-16,-5,2,-5,0
6250298702,3,-8,42,-15,-5,-9,0,0
6250304110,6,-6,-19,-3,-6,-10,-11,-1
6250304110,-6,21,7,-2,-3,15,33,5
6250319008,-3,-23,-3,31,19,4,1,-6
6250319008,14,9,-6,-4,1,7,1,2
6250326599,-27,-5,-32,0,1,3,-1,-4
6250326599,13,-2,2,-4,-4,-10,-8,-4
6250341613,6,-15,-10,2,-4,1,-3,4
6250341613,-16,28,-47,-14,-2,-3,6,-7
6250349131,5,20,60,22,0,7,-2,-2
6250349131,3,13,-20,-12,2,-15,7,3
6250358108,-3,-16,-32,-7,-7,6,-14,-5
6250358108,8,6,-14,8,4,-15,-10,3
6250364144,-17,41,-10,-15,-10,11,7,2
6250364144,-29,-44,-1,-19,-5,-8,-7,-9
6250380424,-7,-27,21,5,1,-4,-1,-5
6250380424,9,-12,-40,-6,-2,6,1,-2
6250386662,19,-14,7,-3,4,-1,1,2
6250386662,4,-14,-24,13,-1,-3,-12,-2
6250401517,20,-7,20,-22,-7,0,5,7
6250401517,-21,-2,17,6,-8,-26,-10,-5
6250409117,-22,-42,-91,-12,5,43,11,-6
6250409117,9,-8,33,6,-2,-10,-12,-4
6250418040,-10,20,-3,7,-1,-12,-3,-6
6250418040,26,-7,13,-8,-6,1,-4,8
6250424038,2,17,-29,8,7,-7,6,-2
6250424038,-13,74,45,6,3,-10,-27,-1
6250439145,-1,32,-82,-24,-16,4,3,-7
6250439145,-19,43,6,-2,5,5,-7,-4
6250446668,5,-27,17,-3,-3,-5,16,12
6250446668,-4,-23,-2,5,6,14,-8,-3
6250461547,4,-18,0,5,4,-7,2,-2
6250461547,-12,-23,-1,2,3,1,-4,-3
6250469153,5,0,38,-7,-12,-26,-20,-6
6250469153,11,-29,-12,-5,-1,9,15,7
6250478005,-2,9,30,4,-1,-1,3,0
6250478005,-2,-24,-14,4,-2,7,-3,-3
6250484187,1,4,4,-1,-6,-11,-8,-3
6250484187,-4,-12,16,5,-2,-6,5,-5
6250501008,-23,-6,-11,6,0,-2,-11,-5
6250501008,16,2,18,1,-7,-1,-1,-5
6250506587,-10,-29,-9,-24,5,0,-1,0
6250506587,-1,-12,9,9,4,4,8,3
6250521684,-4,-31,-34,-1,6,5,5,-1
6250521684,5,-3,17,-5,-9,-4,-6,-2
6250529072,12,-14,10,-2,-14,-9,3,7
6250529072,-7,-7,69,6,11,5,-2,-6
6250538005,-2,-8,-24,-2,-1,1,1,0
6250538005,1,22,19,3,6,5,12,4
6250552309,9,-21,-20,-12,-8,-6,-9,-3
6250552309,13,12,7,1,0,-3,1,3
6250559133,-1,28,31,3,-4,-12,-5,5
6250559133,-16,-5,-35,0,4,17,11,-5
6250566619,5,21,15,8,3,-13,-40,2
6250566619,0,-11,-24,0,-2,10,29,1
6250581656,4,-11,-3,0,-8,-2,-18,-6
6250581656,17,2,-23,-4,5,-5,4,9
6250589165,-3,55,14,3,2,-1,1,1
6250589165,-13,-13,-39,-14,-11,-9,-15,-10
6250598010,0,21,58,2,4,6,9,2
6250598010,-4,17,-5,8,4,-1,-13,-2
6250612332,0,-37,-29,10,-6,-2,17,-3
6250612332,11,63,15,-17,-1,-6,12,1
6250619010,-10,-18,35,6,10,13,5,-3
6250619010,18,9,18,3,-5,-5,-3,4
6250626679,-18,-33,-30,14,6,-11,4,-2
6250626679,-14,-9,-29,-21,-13,12,-17,-9
6250641560,2,-3,-5,-9,7,3,-7,4
6250641560,-27,-36,-24,-14,0,-5,-2,-11
6250649135,27,27,0,-1,-11,-3,-1,1
6250649135,-2,-12,-5,-2,-5,-4,-6,0
6250658042,-4,-17,22,2,4,0,34,6
6250658042,5,-8,-40,11,6,5,-1,-2
6250672358,-9,7,34,-3,2,3,4,-2
6250672358,7,0,2,-9,-10,-12,-7,2
6250679164,0,-15,-5,1,-11,-11,-11,-7
6250679164,-14,-5,-4,-3,-1,-5,-3,1
6250686628,-3,-6,3,9,18,11,21,-3
6250686628,3,4,33,5,-2,-5,-8,1
6250701524,-2,4,-43,-1,0,-1,-1,2
6250701524,1,-5,-39,-5,-13,-8,-8,-2
6250709133,-6,-1,-40,-19,-3,-1,-11,-3
6250709133,7,3,15,2,5,2,3,1
6250718035,17,31,8,8,3,0,-2,8
6250718035,-9,1,4,-15,-4,1,9,-4
6250732385,-8,21,6,-3,2,-1,-3,-7
6250732385,3,-5,-38,8,5,5,2,3
6250739145,-2,-2,27,1,-1,-4,-4,-5
6250739145,14,3,1,1,1,7,3,2
6250746613,-14,-20,-1,5,1,0,-1,1
6250746613,1,-2,-7,-19,-12,-10,-4,0
6250761660,10,16,-8,2,-1,-7,-10,-4
6250761660,2,2,42,-6,-5,7,5,3
6250769169,-2,-6,19,4,0,-6,0,-4
6250769169,-19,13,-20,7,5,8,1,-3
6250777983,-4,-15,-6,-6,-5,1,-9,-4
6250777983,4,2,50,11,10,1,4,3
6250792364,11,9,-2,5,-5,-4,4,0
6250792364,-8,-31,-39,-6,-3,-6,-11,-3
6250799051,10,27,-16,0,-4,-4,1,4
6250799051,-10,-6,-2,-1,1,1,-4,-3
6250806552,1,-6,14,-3,0,4,-2,-3
6250806552,-4,3,5,0,4,-4,1,2
6250821640,-8,-12,-12,-10,0,3,3,-2
6250821640,6,-26,-17,-5,-4,-15,-4,-3
6250829050,-1,-1,-2,-8,-10,5,3,2
6250829050,-19,-6,-8,1,-3,-6,-4,-7
6250838012,7,-3,1,2,-1,5,2,-1
6250838012,-6,-27,26,5,7,3,1,-4
6250852337,2,9,8,7,12,1,-8,3
6250852337,3,0,-12,-1,-10,-7,0,-4
6250859049,-1,-20,11,3,-3,-3,0,5
6250859049,-10,-1,-18,-6,-4,5,1,-4
6250866642,-1,-10,-7,-15,-4,0,-2,-4
6250866642,7,21,19,4,14,0,3,2
6250881567,13,10,1,16,-1,1,1,0
6250881567,-7,5,-2,-10,-9,-10,-4,1
6250889057,-12,1,-22,1,-7,2,-7,-4
6250889057,-9,-8,19,-15,-9,-4,3,-5
6250898063,-1,10,12,3,7,-1,-1,-4
6250898063,3,7,-54,-2,-6,-3,0,3
6250912270,8,-14,1,-13,-4,0,-2,1
6250912270,10,1,-1,11,-7,-5,-1,3
6250918972,-16,-22,-1,-12,9,5,2,-1
6250918972,-1,8,-46,3,-1,-2,-5,-1
6250926534,-3,11,0,19,2,1,5,1
6250926534,6,1,-3,0,5,-9,-2,0
6250941596,-11,-4,8,-1,-8,9,-5,1
6250941596,-3,9,3,3,3,2,4,-1
6250949132,6,-4,-3,-16,-17,-6,-7,0
6250949132,-1,-7,-7,13,14,1,3,-2
6250964112,-9,8,-8,-5,-2,-6,-3,-3
6250964112,2,-7,18,0,-3,-1,1,-2
6250972359,2,-9,-24,-9,-2,5,-13,-4
6250972359,-8,-2,22,0,-3,1,1,-1
6250987167,11,10,30,0,0,-3,0,1
6250987167,-18,7,-57,-11,-3,3,-2,-4
6250987986,-9,-13,19,9,2,-2,4,-1
6250987986,5,-4,-12,-2,-2,0,-1,-1
6251001551,10,-16,-34,-4,-3,-2,-1,2
6251001551,-20,-60,6,-15,0,-4,-4,-4
6251009173,0,4,26,29,19,5,4,1
6251009173,-3,-26,26,3,-10,-4,-6,-5
6251024034,0,6,-38,-4,-7,-3,0,0
6251024034,11,12,-13,-1,3,1,2,1
6251032361,-1,-5,0,-7,-8,-6,-1,1
6251032361,0,2,31,-5,2,1,1,1
6251047183,-7,-2,-5,-16,-8,-7,-7,-6
6251047183,8,21,40,13,1,-3,-2,0
6251048070,-4,-5,6,2,5,4,3,-1
6251048070,7,10,9,5,3,4,2,2
6251061645,-4,2,-17,-4,-2,-5,0,-3
6251061645,3,5,1,1,-4,2,-13,-3
6251069147,2,5,0,-7,-1,-5,0,1
6251069147,5,6,-12,-1,-4,-2,1,1
6251084063,-13,-12,22,-6,-10,-8,-2,-5
6251084063,8,9,-28,-3,7,5,3,2
6251092337,-6,-18,31,16,16,3,2,-1
6251092337,-8,-15,-29,-4,-3,3,0,0
6251107987,-1,6,3,-1,0,-2,1,-2
6251107987,9,11,4,-6,-15,-6,2,1
6251108650,8,16,-13,-11,-4,-1,-3,-2
6251108650,3,11,20,11,2,-2,0,2
6251121577,-7,6,-86,-18,-7,-1,-4,-3
6251121577,-2,-19,38,13,-1,1,3,0
6251129089,-8,0,-11,-10,6,1,-1,-2
6251129089,1,3,-9,0,1,3,-2,-1
6251144165,9,12,24,6,5,1,-3,2
6251144165,0,5,21,5,-5,-1,-2,-2
6251152266,-2,0,-7,-6,-13,-10,1,1
6251152266,2,6,21,-3,1,6,2,0
6251167324,5,-27,-38,-7,1,-1,2,1
6251167324,-8,-5,-3,7,2,4,1,0
6251168020,-2,14,23,6,6,-2,-4,-4
6251168020,-3,12,-22,-11,-8,-7,-2,-2
6251181594,-7,-11,26,17,11,4,-1,-1
6251181594,6,1,37,-3,2,-4,-2,-1
6251189135,-2,2,-8,-9,-13,-5,-1,4
6251189135,-6,-6,-27,-4,-4,0,0,-1
6251203999,25,17,23,13,-1,5,1,1
6251203999,-10,-29,-14,-28,-7,1,3,2
6251212258,-6,-11,21,11,15,2,-3,-3
6251212258,-10,-4,-1,-12,-8,-6,-3,-5
6251227239,-11,-5,23,8,-2,-3,-1,-2
6251227239,6,16,21,16,1,-1,0,-1
6251227969,7,3,-23,-12,-8,1,1,0
6251227969,-2,-5,-9,3,0,-2,-4,1
6251241610,4,4,10,-3,-8,-5,-2,1
6251241610,-1,13,-8,3,9,6,1,-1
6251249093,-12,-3,-27,-13,-7,-9,2,-6
6251249093,-10,-14,18,5,-2,3,-4,-4
6251264152,2,10,-22,-5,1,-1,-3,0
6251264152,-22,-7,-3,4,-2,-5,-3,-1
6251272236,10,2,-7,-1,-6,1,2,1
6251272236,7,-6,9,-4,-6,-3,-1,-1
6251287285,9,19,3,-11,-4,-1,0,2
6251287285,-20,-12,2,20,28,10,8,-1
6251287963,-6,-7,-37,-7,-11,-7,-8,-9
6251287963,-3,10,-7,-2,4,1,-2,-2
6251309758,6,-13,33,14,2,0,0,4
6251309758,20,10,-31,-7,-12,-9,-2,1
6251310467,-3,-9,-3,-8,-8,0,0,2
6251310467,14,15,27,5,-2,-3,-4,4
6251324029,-35,-47,-7,-10,-4,-7,-3,-10
6251324029,1,-1,3,-7,0,-3,-3,-4
6251332374,10,-4,16,0,10,0,6,2
6251332374,5,25,-17,5,-4,-3,-3,1
6251347179,-12,-11,3,-2,-1,1,1,-1
6251347179,6,5,-9,-11,-8,-3,-4,-1
6251348024,4,-5,29,5,-3,-2,-2,-1
6251348024,2,-4,-26,-2,7,5,4,1
6251361535,-9,-10,44,9,9,6,4,1
6251361535,-2,11,1,-6,-13,-8,-10,-5
6251369121,3,2,6,7,2,-1,-2,2
6251369121,-14,-11,6,-3,-4,-3,-4,-4
6251384124,5,4,-11,0,-4,-3,-3,0
6251384124,6,-5,-14,4,1,5,3,1
6251392320,7,13,43,-6,3,3,-1,1
6251392320,3,0,-35,4,-5,-4,1,-3
6251407280,-4,13,22,-16,10,9,3,4
6251407280,-6,-9,-21,13,3,-3,1,-1
6251407970,-13,-5,25,-2,-12,-7,-8,-5
6251407970,0,-7,-3,3,2,-2,-3,-4
6251421641,2,10,-19,-8,-8,-6,0,-3
6251421641,13,9,-1,-1,12,6,1,3
6251429102,-1,-1,-17,3,-1,3,0,1
6251429102,3,-7,-2,-3,-6,-8,0,-3
6251444135,9,27,22,6,-4,-2,-2,1
6251444135,-14,-32,-14,-9,5,2,-1,-2
6251452151,-2,2,-38,-1,7,3,1,0
6251452151,-7,-4,54,-4,-7,-5,-5,-2
6251466567,-3,-17,-23,0,-6,-6,-6,-4
6251466567,3,28,8,2,-3,0,-1,1
6251474789,7,3,-14,-3,2,4,3,3
6251474789,2,-11,-29,-3,-2,1,-1,-1
6251481615,-12,0,4,2,0,-7,0,-1
6251481615,7,10,8,-11,-17,-1,0,-1
6251489089,-4,6,7,19,19,5,-2,1
6251489089,-1,8,2,12,12,3,-2,1
6251504075,-2,-18,-75,-16,-8,-4,-7,-4
6251504075,-10,-14,34,-4,-10,-10,-2,-5
6251512202,1,10,-32,-8,-11,-3,-3,1
6251512202,-1,-6,-16,-6,1,3,0,0
6251526550,-5,1,0,6,4,1,1,0
6251526550,1,0,4,1,-6,-3,-2,-3
6251534707,0,-16,-12,-12,-6,-1,-3,-4
6251534707,2,4,19,13,13,-1,3,3
6251541594,9,3,-15,-2,-3,3,0,0
6251541594,-11,4,-20,-4,0,-2,-2,-2
6251549810,-2,-5,23,8,1,2,0,-3
6251549810,1,2,-27,-5,0,-2,0,0
6251564069,-2,1,23,-4,-5,-4,-1,-4
6251564069,1,-2,50,2,-7,-3,-7,-1
6251572181,5,-10,10,5,-2,-6,0,-1
6251572181,-8,-2,-23,-3,-1,6,5,0
6251586654,-12,6,-5,1,11,2,0,-2
6251586654,-7,-15,-6,2,-3,-5,-3,-3
6251594819,12,15,-3,-3,-4,-3,-1,0
6251594819,-2,-37,4,-4,-11,-6,-4,-2
6251601515,8,-2,9,-17,-8,-1,-2,-1
6251601515,-2,21,6,-4,14,4,3,-1
6251609810,-19,-16,10,6,-6,-5,-3,-5
6251609810,0,-7,-14,-2,-3,-2,-3,-2
6251624142,-6,5,-2,3,-2,-2,-1,-5
6251624142,15,2,-26,-4,1,3,0,6
6251632263,4,8,12,-4,-7,-1,-1,3
6251632263,1,27,29,0,2,-3,-2,-3
6251646527,-10,-26,-74,-15,-3,0,-2,-3
6251646527,3,12,28,11,3,-3,1,-1
6251654747,-2,2,10,-8,-2,0,7,0
6251654747,-7,-6,8,6,1,3,-4,-6
6251670507,6,-1,7,7,3,0,-2,0
6251670507,-14,-12,-51,1,-2,0,-2,-3
6251671162,-4,1,-29,-20,-6,-2,3,-3
6251671162,12,13,35,-3,2,-1,2,6
6251684113,0,-18,8,21,6,-1,2,1
6251684113,-1,-16,-34,-3,-13,0,-5,-2
6251692231,-1,2,25,-2,11,0,-3,-5
6251692231,-10,6,11,-1,-5,0,-1,-1
6251706559,7,9,22,-1,6,-2,-4,0
6251706559,3,-7,-11,-5,-12,-9,-2,0
6251714824,-6,-5,0,-1,-12,-1,-3,-1
6251714824,0,-11,-15,-7,4,0,-1,-2
6251730450,7,22,23,1,10,3,3,2
6251730450,-10,-6,7,1,2,-1,0,-2
6251731142,-3,8,-13,-1,-7,-3,-4,1
6251731142,-3,-24,-6,-8,-7,-4,0,-2
6251744162,1,6,3,-1,-7,-2,-2,1
6251744162,12,1,4,-5,2,0,0,0
6251752265,4,12,7,8,3,4,-1,2
6251752265,-6,-13,9,6,3,0,1,-1
