timestamp,emg1,emg2,emg3,emg4,emg5,emg6,emg7,emg8
7216480037,-3,-11,0,-1,-7,-6,-3,-3
7216480037,-1,7,4,-20,-12,-3,-4,-2
7216480869,-1,8,-6,12,5,-3,0,0
7216480869,-3,-2,-2,-8,-10,-6,-6,-3
7216481755,7,-8,-5,-9,-14,-9,-7,2
7216481755,2,11,0,6,6,2,3,0
7216484522,-18,-2,10,10,21,15,11,-3
7216484522,-10,-18,-1,0,-3,0,-2,-2
7216492356,2,11,1,-5,0,-3,-2,1
7216492356,3,-2,1,8,-11,-10,-9,-2
7216500345,8,-8,-8,-13,-4,2,1,1
7216500345,0,0,0,33,31,12,8,1
7216506682,-8,5,1,-6,-9,-8,-5,-2
7216506682,12,-10,2,3,1,-2,-2,-2
7216521682,-15,-8,-16,-22,-17,-6,-8,-1
7216521682,-2,1,-1,-10,-14,-3,-3,-5
7216530363,-1,-5,-5,2,3,1,1,-1
7216530363,0,-6,2,2,4,-4,1,-1
7216538071,2,2,3,2,-5,2,-3,-4
7216538071,4,4,-7,-12,-3,-12,2,-1
7216552458,2,-8,3,10,13,5,-39,-3
7216552458,-15,-9,-10,-15,-10,-7,5,-4
7216560260,14,7,0,-3,-3,-2,-20,7
7216560260,3,4,1,-5,-10,-1,20,-2
7216599911,1,5,-1,1,-1,-12,-43,-4
7216599911,2,26,10,1,-2,11,-5,-15
7216600781,4,-10,-5,-3,-2,22,-10,14
7216600781,-3,-18,-3,-4,-6,-4,4,2
7216601469,-7,8,-3,-2,3,-10,25,3
7216601469,5,-3,4,0,-1,-2,-13,8
7216603910,-35,-23,2,0,-4,-9,-12,-13
7216603910,-1,3,-3,1,3,9,-8,-9
7216612138,-1,4,-1,-2,-6,-6,26,8
7216612138,7,-12,-6,-3,-3,-7,-18,-13
7216619000,20,18,3,2,3,5,11,5
7216619000,-4,15,1,1,0,0,4,5
7216626420,10,-12,-1,-2,-1,0,-9,-9
7216626420,-15,-14,-5,-3,1,2,10,1
7216641519,5,5,-3,-4,-5,-17,-7,1
7216641519,1,1,-1,0,2,-8,5,-4
7216649059,-8,-14,1,0,2,13,-3,-1
7216649059,1,3,2,4,5,4,11,2
7216657822,16,12,-4,-1,-7,-17,2,0
7216657822,-15,1,1,0,0,12,-14,-3
7216672176,0,2,11,2,1,1,5,-4
7216672176,-8,27,-4,-12,-4,3,2,6
7216678964,9,29,10,2,10,-4,-11,-8
7216678964,4,-7,-21,13,-2,-1,-1,1
7216686483,-29,12,4,2,4,-9,-10,-5
7216686483,-5,-43,6,1,4,-1,7,4
7216701458,51,98,36,11,-10,15,6,7
7216701458,-49,-30,-48,-14,6,-6,-8,-16
7216708980,-7,-2,8,10,0,8,14,6
7216708980,15,25,-9,-8,1,-9,-5,5
7216717915,-20,-19,-25,-20,-9,-14,-8,-10
7216717915,48,13,30,-21,-10,3,19,13
7216732171,-9,6,17,-44,-11,12,3,2
7216732171,-27,-32,-2,59,20,-5,4,-7
7216738897,-4,8,-24,-22,15,8,18,2
7216738897,10,-64,29,-1,-19,-16,-28,-4
7216746448,7,53,3,2,-3,-3,0,-1
7216746448,37,47,39,-7,-11,-2,-3,8
7216761442,-33,-93,-54,-14,-4,-3,1,-8
7216761442,24,53,14,13,-1,0,1,3
7216768956,18,2,-1,12,8,2,-5,-2
7216768956,-28,-38,-15,-10,-9,-3,-3,-5
7216777962,-12,32,27,18,-1,2,2,0
7216777962,-10,79,-17,-26,-17,-3,4,4
7216792192,3,7,3,10,5,-9,-9,-5
7216792192,-3,-5,-10,-16,-6,9,-6,-10
7216798980,-14,-27,-2,16,10,-8,-12,-5
7216798980,11,-54,24,28,19,13,7,9
7216806461,28,-59,-27,-3,3,0,-2,2
7216806461,-30,-18,-13,-34,-1,-11,-7,-4
7216821449,2,-31,2,-5,-45,2,4,-7
7216821449,-24,-47,-14,16,56,-4,-1,-10
7216828877,1,-14,-6,-47,-23,-5,-5,-4
7216828877,17,2,-6,44,-12,21,6,4
7216837917,-5,-31,18,9,8,-6,1,-3
7216837917,1,14,7,45,-51,-1,-6,-2
7216852072,-4,1,5,-30,55,23,13,2
7216852072,6,-1,-3,-28,-11,-14,4,5
7216858983,-2,-5,-1,-25,7,12,3,0
7216858983,3,17,-5,-11,-11,-16,-6,-7
7216866473,-7,6,-10,16,-25,-23,-14,-5
7216866473,4,9,-7,3,-29,8,1,-2
7216881488,8,14,-2,38,36,-11,-4,2
7216881488,-15,11,29,-2,-6,5,-4,-7
7216888920,-6,-9,-4,6,-7,1,-3,-1
7216888920,-4,-3,-1,-12,12,1,6,1
7216903998,1,18,-14,11,11,1,1,4
7216903998,3,1,-9,-18,-8,-9,-8,-3
7216912188,-13,-8,2,26,-11,-7,1,-5
7216912188,2,-4,-2,4,5,4,-1,1
7216918877,-3,-9,5,2,-1,7,2,0
7216918877,3,-11,-21,-35,2,12,7,0
7216926407,5,-2,-1,33,8,-9,-4,1
7216926407,-2,7,5,-12,-8,-17,-4,0
7216941463,1,-4,3,-18,-19,-10,-6,-2
7216941463,-3,-3,-6,12,29,18,11,4
7216948948,5,-2,-4,-8,-13,0,0,2
7216948948,2,-2,2,12,14,-1,0,-2
7216963961,3,1,9,-6,-9,-9,-15,-3
7216963961,4,7,-9,-9,-9,-3,1,7
7216972201,-1,3,4,7,1,-19,-2,3
7216972201,-3,6,-1,-3,5,39,0,-5
7216979041,-1,-3,3,1,6,-2,-7,1
7216979041,-7,-1,-10,-11,-8,-24,-7,-8
7216986500,-1,-7,-10,-1,-2,21,-5,1
7216986500,2,-8,3,-3,3,-17,3,2
7217001366,-2,-9,-3,-3,-6,0,0,-1
7217001366,-2,-7,5,3,1,-1,5,-5
7217008982,-7,-6,-3,-4,-3,-2,-17,0
7217008982,4,-1,-4,-4,-4,-16,-6,-5
7217023927,-6,6,3,-1,1,8,2,-2
7217023927,-1,1,4,0,1,0,6,1
7217032147,-8,-9,-6,-8,-5,-5,3,-2
7217032147,1,3,-1,0,0,-12,-6,-4
7217038957,-6,0,-3,-1,-2,19,4,2
7217038957,0,4,-2,-5,2,2,-5,4
7217046437,1,-3,-3,-3,-2,1,2,-2
7217046437,1,-2,1,8,2,-1,-1,0
7217061437,-2,-1,2,-2,-6,-6,1,-4
7217061437,7,7,0,-8,0,-3,-4,-2
7217068937,2,-7,-9,1,2,6,3,2
7217068937,-6,30,-3,-6,2,-3,3,-2
7217083882,-2,-16,-4,2,-1,-3,-1,0
7217083882,-7,-6,-2,-4,-4,3,0,-2
7217092067,-1,5,-4,-2,1,-2,2,-4
7217092067,4,19,11,-15,-10,-5,-6,-1
7217098894,5,2,2,26,10,1,1,1
7217098894,10,-1,-11,-7,-8,-3,-4,5
7217106371,-18,-1,-4,-15,-1,-5,-2,-6
7217106371,-2,-38,-2,7,4,9,5,-1
7217121512,-15,9,-10,-24,-3,2,3,-3
7217121512,5,5,21,18,-6,-5,-2,0
7217128882,9,7,-29,-12,16,9,5,0
7217128882,19,17,8,6,-11,-6,-3,4
7217143931,-17,-26,-13,-34,-10,-10,-5,-5
7217143931,-8,9,1,-4,-8,-9,-7,-3
7217152213,14,-12,12,39,-4,-4,0,5
7217152213,6,72,22,10,19,10,8,9
7217167055,1,-40,-8,0,-9,-2,-3,-5
7217167055,-26,-13,-19,-3,8,-2,-2,-4
7217167986,17,-3,2,-1,-10,-3,-2,-3
7217167986,1,-58,-6,1,-8,-8,-6,0
7217181436,-5,34,-6,-10,-4,-3,-3,-1
7217181436,4,43,9,-1,-1,0,-3,-6
7217188969,-8,-16,2,-7,3,5,2,4
7217188969,-15,-20,0,4,5,-5,1,-2
7217203838,24,34,8,18,8,3,-2,5
7217203838,-41,-16,-16,-25,-10,-5,3,-8
7217212050,18,24,3,-4,3,9,-1,-1
7217212050,-3,-6,-10,-10,-20,-19,-6,-3
7217218944,-9,-15,13,10,1,9,3,1
7217218944,18,-13,2,15,10,12,2,2
7217234645,-14,-3,2,8,-4,-4,-1,-4
7217234645,-11,-27,-14,-8,16,-7,-4,-3
7217241432,7,-4,-9,-24,-24,-3,-2,1
7217241432,9,-8,5,14,-4,-3,1,6
7217248878,-16,-1,-3,-15,-8,-4,-6,-1
7217248878,5,2,-8,9,9,8,2,-4
7217263951,-2,3,14,18,-10,-10,1,-3
7217263951,5,6,-6,-9,27,8,-1,-2
7217272121,-2,-21,11,11,-1,3,8,1
7217272121,-13,0,-13,-4,14,-19,-14,-6
7217278862,3,6,9,2,-30,-4,-3,-4
7217278862,3,-15,-15,-21,12,-2,0,1
7217294584,-5,-12,-3,4,-22,-10,-7,-7
7217294584,-2,-6,-4,-26,-1,18,5,0
7217301364,-5,2,7,2,6,-9,0,-1
7217301364,-5,-5,-1,-15,-19,-6,-4,-5
7217308958,5,13,9,14,7,-9,-3,2
7217308958,-12,-18,15,0,-16,17,5,-10
7217323981,-25,-6,10,-9,42,5,-1,-2
7217323981,17,2,0,-3,-16,-4,2,4
7217332110,-2,10,-20,-25,9,8,5,1
7217332110,4,16,15,21,-29,-6,-4,-4
7217338895,12,-8,-27,-36,-7,-1,-3,2
7217338895,-1,5,14,14,24,13,6,3
7217354606,0,10,14,-1,-19,-12,-4,-1
7217354606,2,7,2,17,1,-3,-1,-1
7217361356,1,7,-3,28,-2,0,3,-2
7217361356,0,10,-11,-3,5,-9,-10,-1
7217368956,3,-2,-7,-11,-8,2,-1,-2
7217368956,-2,6,-6,-4,-10,-13,-8,-1
7217383991,3,3,-1,-8,-3,-1,1,1
7217383991,-8,-13,2,-10,-6,-1,-1,-4
7217392800,1,15,3,7,7,4,1,-2
7217392800,-1,17,-6,6,5,-4,1,-1
7217398912,2,-5,-14,-14,5,-5,9,6
7217398912,8,6,7,22,-1,7,-6,0
7217415320,-10,-26,-12,-7,-1,1,-10,1
7217415320,3,-11,-8,-18,-1,-1,1,0
7217421472,5,-3,2,13,7,5,-4,-5
7217421472,-4,-7,6,8,-7,-9,-14,0
7217446138,-9,-3,-2,-11,-9,-5,19,-5
7217446138,9,-22,-4,2,21,4,7,7
7217446874,3,13,11,10,1,5,-12,1
7217446874,-9,-19,0,-2,-9,-5,7,-1
7217452823,-6,-8,-3,-3,5,7,-19,1
7217452823,-4,-19,-5,-2,-3,3,15,-1
7217458954,0,-13,-3,7,2,0,4,-1
7217458954,14,-11,-1,-1,-4,-3,6,1
7217475342,7,-4,8,10,7,5,-17,1
7217475342,-8,4,-6,-8,-2,1,-1,0
7217481440,-1,-8,-1,-2,-3,1,-11,-4
7217481440,-12,-6,-2,-1,-3,-13,0,-7
7217497831,5,23,0,3,0,-3,17,4
7217497831,28,7,1,-1,0,5,-1,9
7217503935,-12,-26,-4,-10,0,-10,10,2
7217503935,-32,-7,-3,4,-1,9,-2,-13
7217512811,-18,-10,-2,1,-1,-19,0,-11
7217512811,13,1,2,-1,-1,19,-9,-2
7217518944,8,31,4,0,-1,-2,0,4
7217518944,29,20,-11,-11,-4,0,3,3
7217535321,-2,-5,3,-7,-2,-2,0,2
7217535321,-13,-6,-5,11,3,-8,-4,-3
7217541460,20,26,11,8,-5,0,-3,1
7217541460,4,9,9,10,6,4,1,5
7217557823,-23,-16,-20,5,2,-1,-3,-9
7217557823,15,58,-5,-28,-4,-1,1,-1
7217563933,-55,-84,-18,-19,-10,0,5,-13
7217563933,12,54,4,17,-1,1,3,4
7217572812,32,44,20,-6,2,-1,5,7
7217572812,-45,-32,-11,-4,-9,-9,-10,-10
7217586313,16,29,-8,12,4,1,0,-6
7217586313,33,-39,-29,-21,2,2,-4,11
7217595316,-6,12,-12,0,-19,-2,-2,0
7217595316,-25,16,15,-6,-4,-7,4,-7
7217608926,6,4,27,-8,-3,1,-9,-2
7217608926,-14,-44,70,6,14,5,7,5
7217617795,-8,21,-5,81,7,-3,-11,-12
7217617795,42,-38,-81,-79,13,-2,5,9
7217623910,-15,77,56,-52,-26,-13,-18,-1
7217623910,23,10,29,48,2,2,3,2
7217632803,-6,-56,7,-40,-3,2,-6,-2
7217632803,-20,-20,68,59,13,5,7,3
7217646457,-15,-20,-24,8,-5,-6,-8,-6
7217646457,-9,12,-12,-35,-10,-6,-7,-5
7217655314,10,-3,-2,-6,1,-2,1,2
7217655314,5,42,11,5,-24,-14,-9,1
7217668960,2,-27,-41,4,15,13,7,4
7217668960,-8,107,24,14,-1,-15,-5,-10
7217677778,-17,67,13,-2,24,32,3,1
7217677778,3,46,-13,11,15,4,-22,8
7217683898,1,29,1,-9,-39,-14,27,-1
7217683898,-8,-79,-27,-18,-21,9,7,-5
7217692785,17,-66,5,-6,18,-4,14,4
7217692785,-8,-66,-1,40,11,2,-11,-15
7217706438,11,-36,-6,-9,14,-3,4,9
7217706438,-7,-43,-19,-18,-24,0,-9,-6
7217715270,-11,-43,-21,-26,-23,-8,4,-5
7217715270,-7,2,17,5,12,0,-3,-5
7217728934,7,-22,6,48,33,10,3,-7
7217728934,-10,-23,-25,-23,-12,-8,1,2
7217737781,17,21,3,-1,-4,-4,14,3
7217737781,-7,-24,-4,-12,-15,-1,-17,-7
7217743984,-15,-17,1,-3,-6,-10,-6,-3
7217743984,-6,8,-1,-4,5,6,-11,-1
7217752780,-1,12,5,-2,-13,-9,-9,0
7217752780,5,3,-7,-15,-8,2,11,0
7217766414,3,9,-7,9,8,11,-2,-3
7217766414,-9,29,-10,-15,-8,-9,0,-1
7217775274,-10,17,-3,9,20,8,-3,-6
7217775274,7,19,-1,-6,-8,-2,3,5
7217788927,13,32,-14,8,-3,-1,5,11
7217788927,-3,4,3,13,24,-7,-1,-2
7217797914,1,-19,-2,-3,-16,-5,-8,-2
7217797914,-9,-15,2,-20,-14,2,-6,-5
7217803934,6,-2,-6,7,1,-9,-1,0
7217803934,-1,-15,5,35,12,-3,2,1
7217812765,1,-12,-13,-55,-9,-8,-3,-2
7217812765,7,7,4,36,16,7,11,3
7217826455,-2,-13,1,-4,-22,-9,-13,-4
7217826455,-7,-11,-5,-17,3,0,2,-4
7217835245,-6,5,18,25,15,-5,-7,-2
7217835245,-5,-6,-15,-14,-1,4,4,-2
7217849688,4,-3,-1,-6,-3,-5,-4,3
7217849688,-2,-7,-5,6,-7,2,-2,1
7217856461,7,12,-8,-7,-5,3,-2,1
7217856461,2,2,19,-17,-8,-7,0,2
7217863929,-8,1,9,2,7,6,-9,-2
7217863929,-4,8,18,-1,-3,8,10,0
7217872768,1,-8,19,6,-3,-3,0,1
7217872768,3,1,-48,-8,-7,-28,4,-1
7217886484,1,4,29,0,5,19,5,0
7217886484,-5,-2,4,9,12,17,2,-2
7217895306,1,-5,9,-1,-3,-1,11,0
7217895306,0,9,11,10,1,-2,-8,-1
7217909643,-4,3,-10,-13,-1,0,4,-6
7217909643,4,8,-16,-3,-1,-11,-22,3
7217916415,-1,-1,-15,2,-2,11,24,7
7217916415,-5,-4,3,-3,-4,2,-1,-5
7217923934,-7,-22,-9,-6,-4,-10,-11,-3
7217923934,13,1,-2,-11,2,5,-4,-3
7217932815,-26,-12,6,11,-1,-6,-11,-3
7217932815,-3,-23,-4,-5,-5,0,-1,0
7217946413,-1,-4,-5,2,4,3,0,0
7217946413,11,5,-1,8,-1,-10,4,-1
7217955312,9,1,-5,-9,-6,-11,-8,3
7217955312,-9,3,9,2,3,11,5,-2
7217970297,1,-3,-8,3,2,-1,2,-1
7217970297,10,-4,-12,-10,0,4,4,4
7217971793,0,-2,-57,-8,-9,-7,-11,-6
7217971793,-9,-4,18,13,0,-1,-1,-1
7217983881,5,-3,-51,-4,1,-1,2,2
7217983881,-18,-11,3,-18,-13,-12,-15,-10
7217998932,4,12,22,-6,-2,7,7,1
7217998932,2,4,-23,1,-1,-8,2,2
7218006404,9,10,33,7,2,4,-11,2
7218006404,1,13,1,2,3,7,8,-1
7218015361,-26,-14,-8,4,6,-2,-3,-8
7218015361,8,-5,11,-5,1,5,-1,-1
7218030200,46,20,10,-1,-2,-2,-4,0
7218030200,-39,1,-1,-1,-4,-3,11,2
7218031771,-26,-17,-2,-2,-4,-10,-16,-5
7218031771,9,11,10,0,-4,-6,2,6
7218043926,-13,-12,-12,-2,1,0,4,-5
7218043926,26,2,-11,-4,5,3,-5,0
7218052780,-5,10,16,5,-2,3,-4,-1
7218052780,-7,-1,-15,-17,-5,-2,-5,-3
7218066322,33,16,10,17,2,-2,0,4
7218066322,-30,-11,-18,8,2,0,3,-4
7218075251,-15,-14,6,-13,-4,-4,-6,-6
7218075251,14,0,-23,10,-5,-2,-4,-3
7218090253,-30,-8,12,13,-2,1,2,-4
7218090253,27,12,17,-27,-8,-6,-2,1
7218091774,3,22,6,1,19,8,0,1
7218091774,-11,-20,1,-8,-3,-6,-1,-5
7218103813,-21,5,0,-12,-2,-2,1,-2
7218103813,-2,0,-1,18,0,-2,-2,1
7218112791,19,19,24,4,-4,0,0,4
7218112791,18,7,9,6,0,0,1,0
7218126423,-23,11,-2,-6,4,0,1,-2
7218126423,-8,-17,-4,-9,-5,-5,-4,-4
7218135316,12,12,-1,1,-8,0,0,-1
7218135316,-24,-12,5,4,6,-3,-3,-2
7218149609,-4,-16,-4,-3,1,3,3,0
7218149609,6,10,-4,-8,-2,-5,1,0
7218156412,14,-18,-3,11,-3,-2,-1,-2
7218156412,14,11,1,-17,-17,6,0,7
7218163902,-22,-12,-8,5,8,2,0,-2
7218163902,10,2,-11,7,9,2,-1,3
7218172801,2,-6,-11,-2,-1,-6,-1,1
7218172801,-20,-15,14,-7,-9,-6,-7,-6
7218186414,10,13,4,-15,-10,-4,0,1
7218186414,-6,-15,-2,6,5,-5,-3,-4
7218195293,7,-7,3,8,-16,4,2,0
7218195293,5,13,-11,8,26,7,4,0
7218210092,4,4,6,-3,-3,-5,-2,2
7218210092,-23,-9,-1,7,-5,-6,0,-4
7218216245,15,-9,-8,-27,-9,-1,-16,-7
7218216245,-7,-4,2,-7,-26,-10,-1,1
7218223713,0,-12,-2,22,13,2,9,-3
7218223713,6,-5,10,17,25,14,-4,-2
7218232765,-3,5,9,6,12,8,12,10
7218232765,-2,-5,-2,4,10,-15,-8,-3
7218246368,-12,-15,21,-54,-30,-14,-19,-16
7218246368,6,6,-18,-37,-15,-2,5,4
7218255290,-11,-10,-6,17,22,13,5,-3
7218255290,-2,-13,-5,27,20,16,9,1
7218269418,2,1,-10,6,-3,-24,-6,0
7218269418,1,5,28,43,0,0,-1,-3
7218276234,-4,-2,-14,-32,4,-28,-12,-8
7218276234,6,6,4,-7,-25,18,6,-2
7218283750,-3,-4,-8,0,1,-3,-5,-4
7218283750,-6,-10,-15,-13,-15,7,-4,-5
7218298904,19,17,20,49,17,-4,5,10
7218298904,-21,-10,-36,-3,21,0,-9,-5
7218306273,0,-13,-24,-15,-19,-3,3,0
7218306273,6,13,1,-12,-11,-13,-13,-2
7218315269,-4,-6,3,-26,-7,12,9,2
7218315269,2,0,-11,-36,7,-2,-2,-3
7218329589,7,11,13,5,1,9,2,7
7218329589,-1,6,3,22,-19,-18,-5,1
7218336410,4,11,-4,16,12,4,-2,-6
7218336410,2,9,7,-1,7,11,11,6
7218352743,-1,3,0,-5,4,-6,-3,-1
7218352743,7,0,2,6,-3,10,5,0
7218354268,-5,2,-1,-6,-13,-6,-4,-3
7218354268,-7,0,4,-1,-2,-8,-10,-4
7218366426,1,-1,2,12,-3,5,8,1
7218366426,1,-3,2,-10,1,8,-7,-3
7218375280,9,-15,-10,-8,-4,-7,-8,4
7218375280,-9,-18,-4,1,-1,-9,3,-4
7218389588,-5,-13,4,2,-8,4,-3,0
7218389588,2,-9,-3,-10,2,0,7,14
7218396407,-8,-8,-17,-6,2,14,4,-13
7218396407,1,3,12,15,-8,-11,-2,-4
7218412743,4,-4,-6,-6,2,0,-5,-8
7218412743,-9,6,-4,-4,7,-12,6,0
7218414226,3,10,6,6,-5,0,-9,4
7218414226,8,2,5,3,-4,-4,-1,2
7218426443,2,2,-8,-3,3,2,0,8
7218426443,-6,-18,-6,-11,-6,-2,-5,-7
7218435280,-7,-23,1,0,-9,-5,0,-2
7218435280,-5,-17,1,0,-2,0,-4,-7
7218449566,14,11,-6,-4,1,1,-2,2
7218449566,15,20,5,-5,1,0,-1,-2
7218456368,-34,-9,3,3,-8,-6,2,-2
7218456368,-6,15,-8,4,8,3,1,3
7218472689,7,-4,-1,31,9,3,0,2
7218472689,13,-7,3,-21,-5,-3,1,-4
7218474318,-18,17,-9,10,7,1,-1,1
7218474318,8,5,7,-12,-15,-1,-1,0
7218486342,-16,-1,-6,-11,2,-3,-1,0
7218486342,2,7,3,15,-2,0,-2,-4
7218495235,16,11,3,-7,1,2,3,1
7218495235,7,13,5,-10,2,-3,0,3
7218509560,2,-1,-3,-3,-2,-3,-3,-3
7218509560,-2,4,6,0,2,5,2,3
7218516337,0,-3,-10,-5,-10,-3,-2,-4
7218516337,-14,-3,8,15,3,-1,-1,-3
7218532679,-3,8,2,-1,-1,-2,-2,0
7218532679,-8,4,-5,-6,4,1,-1,-7
7218534217,7,-6,-1,3,-8,-6,-1,0
7218534217,-7,6,-5,-15,-7,-1,-1,1
7218546400,8,1,-12,2,8,2,3,1
7218546400,-11,-15,-7,4,-5,-5,-6,-2
7218555280,14,5,8,11,1,4,1,0
7218555280,6,15,-17,-22,-7,-5,-2,-1
7218569547,-14,1,-8,-15,-7,0,-1,-3
7218569547,7,14,8,9,2,-4,-1,2
7218576344,-5,-10,11,5,-3,-1,-1,-3
7218576344,6,7,-4,17,7,8,3,2
7218592782,-15,8,-19,-36,-8,-3,-3,-4
7218592782,-5,-13,-7,1,1,0,-1,-2
7218594300,6,15,1,-28,-13,-4,-2,5
7218594300,11,-11,7,26,1,-1,-3,-3
7218606284,10,9,-3,-11,6,-4,3,3
7218606284,-44,-22,1,9,5,7,-1,-3
7218615255,-2,-20,-4,1,8,-9,-1,0
7218615255,2,-14,-2,-2,-17,10,-8,-4
7218629597,21,-8,9,7,3,-10,-1,0
7218629597,-1,-7,-7,-14,-4,-3,-4,-3
7218636342,-20,-13,-6,-12,-14,-2,-4,-5
7218636342,-5,-7,-2,6,12,-7,2,-4
7218652759,-4,-13,17,24,6,12,1,0
7218652759,16,5,-13,-9,4,6,6,2
7218654221,-1,12,-8,-1,10,-4,2,1
7218654221,-4,-14,-5,-31,-18,-11,-1,-3
7218666339,-11,1,9,25,-8,6,-2,-4
7218666339,4,2,-2,15,47,-9,-2,1
7218675225,7,9,-3,-12,-38,8,2,0
7218675225,-1,1,11,-3,8,-1,1,1
7218689561,1,-7,-13,-18,-15,-11,-8,2
7218689561,5,-3,-3,-17,-19,-8,-5,-3
7218696366,-3,-5,5,45,20,2,1,-2
7218696366,-19,-13,-6,8,11,9,1,-4
7218712761,2,0,7,-4,2,1,1,-3
7218712761,-5,-11,-11,-20,-19,-4,-2,1
7218714257,7,-1,-12,-19,-4,-11,-2,2
7218714257,5,10,2,-2,-17,-8,2,-2
7218726326,0,-7,4,25,12,6,-4,0
7218726326,8,14,11,20,0,11,9,4
7218735269,-4,-4,4,-11,10,-19,-8,-5
7218735269,-9,-3,-3,-3,-6,18,-2,-3
7218749594,4,6,3,-28,-12,-8,3,2
7218749594,6,4,6,54,23,5,1,2
7218756383,3,11,3,-3,16,10,5,1
7218756383,4,-6,0,24,27,-3,2,2
7218772753,-6,8,1,-17,-29,-10,-4,-4
7218772753,-1,-7,5,12,-7,-5,-6,-2
7218774260,4,6,-1,-4,1,9,4,1
7218774260,5,6,-6,12,10,4,3,2
7218786335,-3,-1,1,8,1,-2,-1,-1
7218786335,-10,-2,-1,-25,-20,-4,-1,-5
7218795239,0,-2,-2,0,6,-7,-5,0
7218795239,2,2,4,-8,-15,-12,1,0
7218809608,1,7,4,14,10,0,0,-1
7218809608,-7,0,-12,-26,-7,-3,-4,-3
7218816345,0,-1,2,-3,-5,6,-2,-2
7218816345,4,1,1,-16,-8,-1,1,3
7218833235,-7,-9,-15,10,13,-4,2,-3
7218833235,-2,1,0,-16,-5,9,-3,0
7218834720,-2,-4,1,-3,-8,-6,0,-2
7218834720,-7,7,5,5,3,7,5,-2
7218846385,5,-9,0,-4,4,4,-2,0
7218846385,3,-14,-7,-4,-1,1,2,3
7218855265,-1,-17,-8,-2,-4,9,-1,-2
7218855265,4,4,5,2,-5,-19,-7,-1
7218869590,-9,-6,-1,-3,-2,8,-5,-3
7218869590,3,-7,-2,-4,-4,-7,3,-3
7218876368,-5,1,-2,5,4,5,0,1
7218876368,-6,-4,-2,-5,-2,-14,-1,1
7218892736,6,-9,-6,0,3,13,4,-1
7218892736,-4,-4,-1,4,-3,-7,-1,-1
7218894243,-15,-13,-6,-8,-8,-4,-6,-7
7218894243,1,-10,0,-6,-3,4,-2,-1
7218906412,1,-12,2,5,2,-2,1,1
7218906412,14,7,3,-10,-4,-1,0,1
7218915227,-7,-7,-4,11,2,4,4,0
7218915227,1,-8,-4,-5,-4,-12,-7,-1
7218929625,-2,6,-1,-3,0,8,0,5
7218929625,-6,11,1,-2,0,-1,-3,-3
7218936415,8,-3,-2,-9,-1,0,0,1
7218936415,-8,-2,-4,-6,-3,-2,-4,-1
7218952734,-4,2,1,6,-4,6,-4,-5
7218952734,-12,-4,-3,2,0,-4,1,-2
7218954209,20,-6,-7,-14,-3,-4,-3,-2
7218954209,-30,10,6,14,-1,2,-1,-3
7218966355,11,10,-7,-14,1,-9,-1,1
7218966355,-4,-6,3,6,-1,2,1,2
7218975262,2,19,13,10,-2,-4,-2,1
7218975262,15,2,-20,-13,-2,1,-3,0
7218989504,-27,7,2,0,-8,-12,-3,-9
7218989504,3,-11,-9,-3,4,4,0,-2
7218996408,6,0,3,8,3,1,2,6
7218996408,17,-12,-14,-14,2,-1,-1,2
7219012725,-24,-1,1,2,-1,-1,2,-6
7219012725,-12,18,6,-14,-6,2,-3,-7
7219014239,9,23,-6,13,1,-2,-3,7
7219014239,-4,-1,2,-2,-8,1,-4,-5
7219026425,16,11,0,11,2,-2,2,6
7219026425,-11,-6,4,-13,3,-1,1,-3
7219035220,-8,-14,-9,-10,-1,0,1,-1
7219035220,20,30,9,20,2,2,-3,0
7219049550,-16,-4,-6,-23,2,1,1,-1
7219049550,5,-1,15,23,-1,-1,0,-1
7219056356,0,0,-14,-24,-13,-10,-5,-5
7219056356,-6,12,9,14,8,10,7,2
7219080234,4,-13,-1,14,11,3,-2,-2
7219080234,14,3,-5,6,5,5,1,3
7219081736,-20,-9,1,-22,-13,-3,-4,-9
7219081736,-25,-21,-9,-3,-3,-3,-1,-3
7219086359,22,1,4,-27,-7,-4,-1,1
7219086359,-23,-14,-1,9,-6,-4,-2,-2
7219095286,3,-17,-3,8,28,7,3,-1
7219095286,9,-3,11,8,5,-5,0,0
7219109579,10,-4,-3,-8,-3,-5,3,4
7219109579,-1,-6,-1,0,-6,0,-4,-2
7219116389,-6,-1,4,-4,-21,-9,-5,-6
7219116389,-2,-1,-1,-5,-3,0,0,-4
7219132086,9,-21,-8,5,0,3,-1,-1
7219132086,3,-5,-8,-4,12,-16,-4,0
7219138860,-17,6,0,-15,-39,7,0,-6
7219138860,12,-10,7,25,35,6,7,5
7219155211,-8,1,-11,-4,-6,-7,-7,-5
7219155211,-10,-3,-4,-6,-2,-9,0,3
7219156720,-4,-7,17,21,7,5,-11,-3
7219156720,12,-3,-10,-32,-28,-15,-8,-2
7219169570,-14,-2,2,14,11,8,3,0
7219169570,11,9,2,7,4,8,2,1
7219176362,3,9,-6,11,13,-2,1,1
7219176362,1,3,-5,-45,-39,-4,-5,-6
7219192058,-3,-3,2,2,7,-7,-4,-2
7219192058,-6,-1,-5,-8,-28,-7,-6,-5
7219198911,2,6,-4,30,32,11,12,0
7219198911,-9,-4,-5,-25,-3,12,-3,-4
7219215257,1,5,2,23,-11,-10,-1,0
7219215257,1,4,0,-6,7,-9,-4,1
7219216748,-4,-1,4,-3,-19,-4,2,-5
7219216748,-4,-4,-6,10,22,6,1,-1
7219228855,3,18,0,-8,-2,-12,-7,1
7219228855,-1,-20,-18,-22,-29,2,-8,-8
7219237746,-1,-10,0,14,7,-5,3,4
7219237746,-1,0,-12,-9,11,4,0,1
7219252068,6,1,13,9,-1,8,1,2
7219252068,7,4,3,17,16,2,6,2
7219258825,-1,-7,-10,-4,-5,-5,-3,-1
7219258825,-2,-8,-19,-8,-6,-2,-3,-3
7219275235,-2,0,-1,-10,-19,-11,-2,-2
7219275235,0,10,5,1,6,-4,-3,-2
7219276748,-5,5,11,32,8,8,3,-1
7219276748,9,19,13,3,-9,-4,-1,3
7219288878,-8,-10,2,10,6,1,2,-4
7219288878,-2,1,-21,-20,-5,1,3,-1
7219297701,6,13,4,-13,-1,-1,1,1
7219297701,-5,-15,-1,11,1,2,-2,-1
7219312114,-2,2,9,-5,-1,-1,-2,-2
7219312114,1,2,5,2,-1,3,3,-2
7219318786,7,17,7,-2,3,-8,1,1
7219318786,-1,-3,0,15,3,16,2,1
7219335191,2,-6,-10,-11,-3,0,3,2
7219335191,-4,-11,7,5,9,8,-1,2
7219336767,3,-19,-8,-16,-4,-12,-8,-3
7219336767,4,0,3,6,-3,-9,6,1
7219348856,-2,-13,-8,-11,-5,-2,-4,-4
7219348856,-6,1,4,5,3,5,2,0
7219357735,-1,-2,-4,-12,-3,1,1,-2
7219357735,1,-3,-1,5,5,-7,-3,-1
7219372093,3,-2,-3,1,1,3,-7,0
7219372093,-9,-28,-4,3,-4,-8,-3,0
7219378877,5,-11,3,-6,-1,1,1,3
7219378877,-11,-14,0,0,-1,-4,-8,-4
7219395233,18,-8,-2,-5,-2,1,3,-2
7219395233,1,-7,2,3,1,-9,2,-2
7219396753,-4,-7,0,-7,-2,8,-6,4
7219396753,-11,-3,3,7,-1,-5,1,-3
7219409536,-35,-18,-4,-5,3,5,11,-10
7219409536,31,27,-4,-6,-1,0,-33,13
7219416261,-8,-2,12,8,2,-3,15,-5
7219416261,16,-8,-13,-8,-9,-14,-4,2
7219432053,13,24,9,-3,-3,-6,2,-3
7219432053,-2,13,1,13,6,27,2,1
7219438768,-33,-8,-12,-24,-9,-12,-10,-7
7219438768,23,30,31,11,-2,7,-1,1
7219455127,-41,0,-8,11,-3,-9,-4,0
7219455127,42,20,-22,-14,-12,-4,5,-3
7219456686,9,107,35,-1,10,9,5,13
7219456686,-22,-21,20,38,1,2,13,3
7219468868,-11,-90,-70,-35,-28,-22,-29,-17
7219468868,2,-20,-18,-5,24,4,12,5
7219477756,-42,-26,11,28,-17,-5,-19,-30
7219477756,19,108,35,-39,28,0,-24,-1
7219492017,-13,-57,-5,-54,-12,-2,-11,-5
7219492017,-5,43,-42,7,-21,-14,-10,-8
7219498828,31,69,9,-59,18,1,29,13
7219498828,-17,-63,27,-36,3,10,-4,-6
7219515080,-28,94,-33,30,5,9,5,1
7219515080,-2,-51,17,-4,15,6,12,3
7219516714,12,15,6,3,-25,-17,-15,-6
7219516714,1,-9,18,14,-2,2,10,3
7219528817,34,8,47,-7,10,7,8,13
7219528817,-26,-20,-23,3,-16,-12,-6,-11
7219537744,21,7,-16,17,-2,-4,-7,8
7219537744,-11,-8,-12,0,-7,-5,-10,-9
7219552055,12,11,1,23,11,-9,14,2
7219552055,-16,29,19,8,14,2,-5,-4
7219558814,1,11,-11,1,-10,14,-37,-3
7219558814,-5,97,-45,-14,0,-18,14,-11
7219575135,-1,42,36,6,14,14,29,16
7219575135,10,-1,1,-20,-25,2,3,-3
7219576643,13,-85,-23,1,12,1,2,2
7219576643,-39,-91,0,24,-20,-31,6,-6
7219588887,17,-12,-11,6,13,12,-10,-6
7219588887,-1,-30,23,-3,2,2,-10,4
7219597710,-8,-72,-8,31,59,40,23,-2
7219597710,14,-8,-24,15,-6,-2,-4,11
7219612021,-1,-14,14,-6,-25,-28,-17,-8
7219612021,-11,-15,-7,-24,-20,-10,1,-7
7219618731,-2,-9,-8,-8,-13,-22,-2,-3
7219618731,12,5,-6,5,6,8,-18,-1
7219635106,-3,-1,-6,-5,-3,9,-6,1
7219635106,-14,-8,15,-7,-6,0,10,-5
7219636739,3,9,-2,11,2,5,6,6
7219636739,-3,2,-6,-9,-1,-2,-1,-3
7219648860,0,-5,-14,-16,-10,11,-7,-1
7219648860,-3,29,5,28,41,13,1,1
7219657752,-8,15,-14,-27,-40,-29,-8,-7
7219657752,4,1,-7,15,21,15,5,6
7219672017,1,9,14,11,9,3,5,-4
7219672017,2,8,8,16,20,-11,-4,-1
7219678765,-15,-24,-11,-1,-28,9,-4,-3
7219678765,8,-12,-5,-21,-14,-2,7,0
7219695052,-3,4,-8,-11,0,-7,4,0
7219695052,11,10,8,9,-9,-12,-5,4
7219696695,-3,-8,1,-9,2,-4,-1,-1
7219696695,-2,-2,4,-15,-18,1,-2,-2
7219708785,5,1,-4,27,18,7,6,8
7219708785,-17,-18,-14,-44,-6,-2,0,-8
7219717705,15,15,3,2,-4,-4,1,2
7219717705,-3,3,2,2,-2,4,0,-2
7219732057,1,11,12,23,3,-2,-5,-2
7219732057,-6,1,-3,-14,-10,-1,-2,-2
7219738865,-18,-12,-6,-16,0,-7,-4,-4
7219738865,12,-1,0,0,-3,0,-1,2
7219755184,16,-1,-1,-9,-7,-9,-6,0
7219755184,-23,-1,5,19,0,6,5,-2
7219756713,-6,-5,2,1,1,3,3,-1
7219756713,0,1,-7,-1,-2,-1,0,-4
7219768722,1,13,9,10,-1,-21,-1,2
7219768722,16,5,3,-1,-5,19,-1,1
7219777878,-8,-2,0,7,15,-1,-3,-1
7219777878,-7,-13,-5,2,1,12,6,2
7219792072,12,-11,-5,-9,-4,-6,-7,-5
7219792072,-7,-6,-3,-6,-10,-6,2,0
7219798721,5,-5,-2,1,6,0,-1,1
7219798721,-11,-4,-5,5,5,1,-1,-1
7219815207,1,-2,-1,-6,-2,6,1,-2
7219815207,21,15,5,5,0,-3,0,5
7219816700,10,2,-8,-1,-2,-6,-9,-2
7219816700,-29,-7,4,-6,-6,-21,-2,-7
7219828940,-16,0,-8,-3,0,23,1,-5
7219828940,2,0,-2,3,-3,-7,-3,0
7219837710,14,1,3,-5,-2,-2,3,3
7219837710,9,-8,-9,3,1,-2,-3,5
7219852087,-3,14,10,10,1,1,-4,-4
7219852087,6,7,-8,-11,0,-6,-3,-1
7219858833,-10,10,1,-3,-7,-5,0,-4
7219858833,-21,-24,-11,-12,1,4,-4,-5
7219875133,-1,20,4,8,-3,-5,-3,2
7219875133,11,1,6,9,1,-1,1,0
7219876717,27,27,6,-7,-2,3,3,3
7219876717,-10,-9,-1,2,-4,-2,-3,-3
7219888832,-3,-12,3,27,13,5,3,-2
7219888832,-13,5,5,-17,-12,-5,3,0
7219897733,13,-10,-18,21,16,-1,1,5
7219897733,13,49,12,5,-2,1,0,2
7219912023,-5,-32,6,-5,-7,-1,-1,0
7219912023,7,-13,-18,15,5,4,-1,-2
7219918833,-13,0,12,5,-4,1,1,-1
7219918833,0,-18,-11,-13,-2,0,-2,1
7219935170,-16,22,2,-16,-6,-4,-1,-3
7219935170,-8,-16,-2,-15,0,-7,-3,-4
7219936670,-8,-7,-3,0,-4,0,-1,-2
7219936670,27,-5,2,-7,-1,0,-1,2
7219948870,-20,-24,-14,-1,1,4,0,-4
7219948870,2,17,7,3,0,1,2,3
7219957672,-3,17,4,22,-3,-6,-2,-2
7219957672,3,3,6,-25,3,7,4,2
7219972060,5,3,-14,-28,-16,-16,-19,-3
7219972060,-6,15,20,15,-7,3,0,-4
7219978850,-8,-28,-35,0,4,10,8,-3
7219978850,-1,25,87,18,13,-8,-4,0
7219995083,-7,-12,-18,-16,-7,12,-2,-7
7219995083,1,-9,7,6,3,-7,-1,-1
7219996622,2,-6,20,-16,-12,-13,-8,0
7219996622,-1,-13,-13,4,-6,2,15,-10
7220016895,6,-3,17,10,3,-34,-35,12
7220016895,-1,-14,4,-2,11,4,8,-8
7220017665,-5,-6,7,-5,-22,6,7,1
7220017665,1,-1,-33,8,27,12,4,-3
7220032690,6,5,6,-27,-37,-19,-3,-3
7220032690,-8,3,-6,12,13,0,-4,1
7220038671,-2,2,3,-8,21,8,2,-5
7220038671,-11,1,-26,-2,-13,-12,-10,4
7220053695,0,-4,0,10,13,21,10,-5
7220053695,-2,7,6,-21,-13,-7,2,3
7220061211,5,-4,4,-7,1,-4,-4,-6
7220061211,-14,2,-10,21,-25,-14,-5,-2
7220076904,1,7,2,-24,21,8,8,2
7220076904,-2,-1,-2,-24,-40,-6,-6,-6
7220077651,6,0,-4,13,40,2,-1,3
7220077651,5,13,-7,-4,0,-8,-9,-1
7220092654,-1,-1,-16,-2,-12,22,19,6
7220092654,-7,-14,-1,13,1,-12,-12,-6
7220098713,3,12,2,10,14,-10,-1,2
7220098713,5,-6,-38,-42,6,13,3,1
7220113721,5,13,27,9,-37,-9,1,-1
7220113721,-5,-8,-23,5,52,11,3,-1
7220121212,3,18,1,-2,-16,-4,-2,3
7220121212,0,7,13,0,-22,-1,-3,-3
7220136846,-2,-8,2,22,23,-7,-1,1
7220136846,-4,1,-12,22,-4,0,1,1
7220137612,-9,-15,-58,-44,-21,-5,-2,-2
7220137612,-4,-2,-3,4,9,1,-5,-3
7220152653,-6,-7,-2,-16,-6,-2,0,-7
7220152653,8,23,19,18,1,2,2,6
7220158697,-7,-10,-6,-14,-3,1,-4,-3
7220158697,8,-5,13,5,-14,-2,-3,3
7220173641,-3,-5,-19,13,10,-21,-2,-2
7220173641,-9,-7,-4,-11,-7,26,-9,-6
7220181172,-6,-3,0,-1,-7,0,-2,-4
7220181172,-13,-20,0,-2,-2,-2,-3,-7
7220196855,2,6,10,8,8,-8,3,0
7220196855,-2,-1,-9,-14,-4,-7,0,-1
7220197604,-5,-7,12,-1,-9,-3,1,-2
7220197604,4,-6,8,13,-1,-6,0,-3
7220212669,-3,-30,-15,-11,5,12,0,0
7220212669,-1,-9,-4,-11,-14,-26,4,-1
7220218670,-1,11,13,14,3,14,3,0
7220218670,0,2,-9,-5,-8,-10,-7,-2
7220233641,-3,1,-6,0,6,-8,-6,2
7220233641,2,-2,1,1,1,22,45,1
7220241145,-5,-26,10,5,-1,-10,-32,0
7220241145,-1,-22,-3,-1,2,-2,7,1
7220256826,4,-9,0,-5,-4,-1,-3,-4
7220256826,2,-6,0,2,-4,-12,-31,0
7220257661,5,11,9,-3,-3,-4,-3,0
7220257661,-9,20,9,-1,-3,4,-5,1
7220272666,-2,2,-5,3,1,2,18,-2
7220272666,-4,-12,-5,2,1,-1,-1,-1
7220278781,6,6,0,1,-2,1,2,-1
7220278781,3,-8,-9,2,3,1,-9,-2
7220293818,-20,8,7,4,4,5,4,0
7220293818,-2,13,-1,-5,-3,-5,-7,-1
7220301238,10,17,2,-1,-4,2,7,-1
7220301238,12,20,17,12,2,1,3,5
7220317069,13,7,-12,-17,-4,6,-1,0
7220317069,-2,9,23,35,-1,-3,-6,-2
7220317673,-13,-14,-47,-44,-1,-4,3,-1
7220317673,-3,2,6,16,-17,-4,1,-2
7220332733,5,-8,4,18,26,6,-7,4
7220332733,-13,12,-10,-41,-4,0,-6,-8
7220338733,7,10,14,51,11,4,7,0
7220338733,-20,-40,-30,-18,0,-2,-2,-2
7220353844,3,24,14,-6,-13,2,0,-2
7220353844,11,13,27,22,-10,-9,-4,1
7220361314,-20,-40,-20,-23,9,-3,-1,-5
7220361314,3,18,12,3,0,3,3,-1
7220376978,4,-2,-23,-14,-14,-9,-9,2
7220376978,22,13,-2,3,5,2,5,9
7220377626,-15,10,24,5,1,3,2,-6
7220377626,5,25,5,11,14,9,2,2
7220392661,0,1,-10,-11,-3,0,-4,-6
7220392661,5,9,-9,-6,-6,-5,-3,2
7220398837,-3,6,5,8,-10,-6,-1,0
7220398837,-18,-19,-19,-15,-5,-19,8,-4
7220413868,4,21,8,5,4,31,9,-3
7220413868,-4,-28,9,6,17,-26,-13,1
7220421292,7,7,2,-13,-30,31,-22,-1
7220421292,10,-11,-2,14,24,-10,12,-1
7220436945,3,-19,11,13,10,-1,1,3
7220436945,-40,-32,-20,4,-9,-6,-5,-11
7220437643,-4,-5,2,-32,-13,-22,-1,-4
7220437643,19,-3,-7,-8,-24,4,-8,0
7220452685,-3,-24,-5,16,19,19,-6,-4
7220452685,2,-4,0,-6,-5,6,33,7
7220466996,0,1,12,15,-3,-17,-4,-3
7220466996,-4,0,-20,-32,-15,-4,-6,3
7220473856,9,9,14,18,-6,-15,-1,-2
7220473856,-1,11,-5,-22,1,9,-6,-3
7220481357,-3,-4,-7,11,28,-3,2,-1
7220481357,6,-2,7,6,4,14,5,1
7220498356,-8,-5,3,-10,-6,-10,-7,-3
7220498356,-8,-13,-10,-24,-9,-1,-8,-3
7220499224,2,-25,-3,36,32,1,7,0
7220499224,4,7,6,-9,2,-9,-11,0
7220512694,-7,0,-12,-16,-8,9,1,-1
7220512694,3,-11,-12,-2,14,8,1,-3
7220518803,5,6,13,2,-18,-2,8,4
7220518803,-6,11,0,1,-2,10,-1,-2
7220533769,-2,-4,2,-13,-25,-22,2,1
7220533769,5,-5,-12,-14,-14,6,-4,-4
7220541160,-3,3,-5,10,15,-3,3,1
7220541160,-7,-9,2,2,0,6,-9,-5
7220556855,0,5,7,14,-2,0,4,2
7220556855,3,6,19,9,15,-2,-4,3
7220557640,-2,-7,-4,1,-17,-2,1,1
7220557640,-3,0,8,18,4,6,3,3
7220572704,4,-3,-5,-15,19,-13,-9,-4
7220572704,-14,3,-3,-12,-24,7,8,0
7220578678,2,1,22,16,1,-4,-1,0
7220578678,3,3,-26,-21,8,-4,-1,0
7220593694,0,-2,-3,1,-8,2,-3,0
7220593694,2,7,7,16,-1,-9,-7,-3
7220601197,-2,1,-1,-4,1,6,2,-2
7220601197,-1,0,5,-2,-14,-2,-1,-2
7220616829,-4,3,0,-11,-5,-5,-1,0
7220616829,2,-1,-8,15,9,1,0,-1
7220617599,2,10,-3,-9,-12,-10,-5,0
7220617599,-8,-2,5,4,14,10,10,-3
7220632560,-4,-4,-10,1,0,0,-4,-2
7220632560,5,-5,0,6,-3,-9,1,1
7220638679,0,3,0,-15,-2,15,11,3
7220638679,-1,-3,0,2,-1,-22,-15,-3
7220653667,-5,0,4,7,-5,12,2,-2
7220653667,-1,-3,0,0,4,3,6,3
7220661146,-6,-8,-14,-13,-4,1,-10,-8
7220661146,1,-1,0,2,-3,-6,-4,-2
7220676974,10,-2,0,6,2,-3,3,2
7220676974,10,6,3,1,5,2,-7,2
7220677642,-20,-13,-4,-1,-4,-6,-1,-1
7220677642,-10,-15,1,5,3,11,10,-2
7220692709,4,0,-2,-3,1,-2,-2,-3
7220692709,-5,-5,-4,-4,-2,-2,2,0
7220698801,18,6,-5,-3,-2,-5,-6,0
7220698801,-7,5,4,1,-2,0,0,0
7220713786,-7,-13,1,1,0,-2,3,1
7220713786,3,3,-6,-5,-1,0,-4,-3
7220721315,-2,1,1,-6,-1,2,2,1
7220721315,11,-7,3,14,3,3,-4,-1
7220737013,-10,5,-6,-12,-4,-2,-4,-1
7220737013,-3,1,-5,14,0,0,-2,-2
7220737673,0,0,5,-11,-9,-2,-2,-2
7220737673,0,0,-5,13,5,-2,0,2
7220752671,-2,1,14,-9,-5,-6,-4,-2
7220752671,15,-6,-25,-1,5,2,-1,-2
7220766965,-10,1,-3,-8,-4,-3,1,1
7220766965,5,18,17,-8,-8,-4,-4,-1
7220773681,-14,-11,-10,22,12,2,2,-3
7220773681,-8,-5,3,-24,-10,-4,-6,-3
7220781265,9,19,1,17,3,1,0,-2
7220781265,9,1,-13,-11,6,6,2,2
7220796968,-26,-5,-5,-8,-5,-7,-6,-6
7220796968,7,-11,2,4,1,1,0,1
7220797616,-2,-22,-3,-3,-5,-3,-3,4
7220797616,9,8,7,-8,-12,-7,-5,-1
7220812680,6,24,8,0,-1,-1,-1,1
7220812680,-11,17,13,8,2,3,0,-7
7220818778,-13,-17,-8,-4,-1,-1,-1,-6
7220818778,-15,-13,-7,4,2,-1,0,1
7220833766,7,-13,-15,-15,-2,-1,-2,3
7220833766,13,2,10,10,0,3,0,1
7220841277,1,10,2,-2,-3,-3,-1,3
7220841277,-21,18,7,21,10,7,4,-4
7220856893,-7,-19,-13,-21,1,3,3,-4
7220856893,-14,1,-6,19,0,-3,-5,-2
7220857707,20,22,-6,-14,-3,-6,-3,1
7220857707,4,2,0,-6,-8,-8,3,0
7220872700,6,25,20,5,-5,12,-9,-3
7220872700,-12,-10,-15,-25,0,-11,2,-2
7220878783,0,-11,-11,3,-4,5,-10,-6
7220878783,6,-3,-1,-6,-7,-8,-5,2
7220893849,14,2,4,14,1,-2,8,7
7220893849,-8,-6,4,-3,-1,4,4,-2
7220901207,-2,-15,0,11,2,1,7,0
7220901207,8,-5,-3,5,7,7,-3,-3
7220916984,-4,-2,-5,-3,-5,-5,-4,1
7220916984,2,-11,4,17,-14,-14,-7,-5
7220917672,-22,-9,-5,-20,25,3,2,-3
7220917672,2,-13,-10,-15,-30,-7,-10,-3
7220939484,6,-4,0,23,10,5,8,4
7220939484,3,4,-8,-14,-1,4,2,2
7220940174,13,1,14,10,5,-4,0,2
7220940174,-10,-10,-11,-13,-1,-8,-8,-8
7220953816,5,4,-10,-21,-4,-6,-3,-3
7220953816,-3,2,9,27,27,14,11,4
7220961312,0,1,1,16,0,5,0,-1
7220961312,1,-13,7,25,8,-4,-1,3
7220976996,-13,-13,1,-44,-11,-2,-3,-6
7220976996,6,11,-10,16,14,2,-3,0
7220977639,2,2,-10,-23,-6,2,1,0
7220977639,-17,-10,-17,-36,-24,-8,1,-5
7220999381,-1,-5,-8,-15,-6,-13,-5,-2
7220999381,-7,-10,3,-5,-14,5,-4,-4
7221000289,2,-4,-17,-12,0,17,2,1
7221000289,7,17,7,33,13,-2,-2,2
7221013803,4,3,15,10,10,-1,3,2
7221013803,3,-2,-25,-29,-19,-5,-3,-3
7221021241,-10,6,23,46,-3,11,3,-1
7221021241,-3,-3,-7,-27,23,6,5,2
7221036256,10,1,-2,17,5,-8,5,4
7221036256,5,7,10,-13,2,-7,-13,1
7221043758,-10,-3,-9,-17,-15,-16,-5,-4
7221043758,13,14,22,8,-3,7,1,3
7221059430,-4,11,10,11,-2,-4,-1,-3
7221059430,-1,-4,1,-9,-7,5,4,4
7221060129,1,2,-1,-6,-2,-2,-2,-2
7221060129,-5,0,1,-1,10,2,0,-2
7221075168,5,3,-5,7,-8,-15,-3,0
7221075168,4,8,10,3,-1,18,-5,-3
7221081256,3,-5,-2,-1,8,-6,24,10
7221081256,-7,-4,-13,-5,-15,-1,-12,-7
7221096282,-9,-33,-12,5,-2,10,-27,-4
7221096282,-4,-3,9,0,9,-10,18,3
7221103812,4,-4,1,3,3,-2,-1,-3
7221103812,4,-2,4,-5,-5,0,-2,0
7221119450,0,-8,-3,-1,-5,-5,2,-2
7221119450,-8,-2,-3,-3,-1,-6,-12,-2
7221120158,6,10,2,-2,-6,0,7,1
7221120158,10,-9,0,5,2,1,10,1
7221133737,-27,-2,11,9,4,8,1,-4
7221133737,4,-17,-9,0,-3,-11,-6,-4
7221141319,-1,-19,-9,-5,-3,-5,-2,-2
7221141319,-1,-13,3,-6,-4,0,2,-7
7221156309,-6,-3,-7,2,1,-13,9,1
7221156309,12,7,5,-7,-7,6,-8,2
7221163788,12,4,2,-2,-2,-6,-24,-1
7221163788,-18,3,0,2,3,5,19,2
7221179436,1,-5,-3,3,1,23,13,-1
7221179436,-11,-11,-2,-5,-8,-9,3,-1
7221180115,1,15,2,-2,-1,-3,-12,-5
7221180115,12,9,-7,2,3,-6,-9,3
7221193777,-9,-1,-2,-5,-6,-5,-3,-4
7221193777,-7,13,1,5,0,1,-3,-4
7221201277,-17,-3,6,-15,-9,-5,-2,-8
7221201277,9,-7,1,29,11,-4,-1,3
7221216281,13,17,-3,-6,-1,5,4,4
7221216281,21,25,-4,-10,0,-5,-2,4
7221223782,0,18,18,12,-3,-1,-1,-3
7221223782,-5,-45,-13,0,-1,-1,-4,-4
7221239460,3,6,-5,-20,-4,-1,-1,0
7221239460,-27,-3,-12,23,2,-3,-3,-3
7221240142,11,12,12,-6,3,-1,1,5
7221240142,-1,-30,-18,-17,-7,-5,-7,-4
7221253778,1,6,9,-13,-2,2,-1,-1
7221253778,12,12,21,-1,-5,-2,3,5
7221261309,-41,-65,-12,14,12,4,-2,-11
7221261309,33,86,22,11,-7,-2,-2,7
7221276233,-19,-52,-20,-11,2,0,-3,-4
7221276233,21,75,3,-28,1,3,9,5
7221283838,1,8,0,17,1,-3,3,4
7221283838,14,75,11,-3,6,3,-8,-1
7221299412,-43,-22,-31,-21,-24,-13,-12,-19
7221299412,19,5,19,13,-7,-11,0,11
7221300115,-11,17,-20,27,20,12,1,-10
7221300115,-16,-27,-35,-24,2,5,5,-3
7221313794,25,-23,12,23,3,5,-3,18
7221313794,-12,9,9,5,-5,-9,-13,-11
7221329452,10,28,-12,-33,-25,-19,-7,4
7221329452,-8,21,19,8,-4,-6,-11,-4
7221336194,14,27,1,10,22,38,20,3
7221336194,-9,-42,-12,-6,-2,-3,11,1
7221343755,4,-4,5,-9,-4,-29,-8,-9
7221343755,-9,-22,-1,0,-9,24,-12,1
7221359435,6,1,10,0,-20,-26,-12,-2
7221359435,-12,-45,-4,-8,15,20,5,-2
7221360126,-7,-22,-10,-26,-16,7,19,-4
7221360126,-9,-43,-8,1,9,-31,-11,-2
7221381905,-4,-22,15,21,0,-3,-2,-3
7221381905,4,-11,-20,-11,1,11,-2,-1
7221382615,0,-11,11,9,-9,-8,-9,1
7221382615,-4,-9,-7,-32,-12,9,10,2
7221396252,3,22,0,7,-5,-11,-5,-6
7221396252,-9,-5,1,11,22,2,2,-8
7221403755,8,4,-6,-23,-4,5,0,5
7221403755,-14,-7,8,9,-4,4,9,-1
7221419441,20,28,-2,7,1,3,3,0
7221419441,-24,-10,-19,-2,-13,-9,-5,-6
7221420143,9,-14,-12,-18,1,-2,-6,-2
7221420143,-1,25,16,31,-11,5,3,-1
7221433776,7,-3,2,-8,5,-4,1,2
7221433776,-12,-21,-2,-16,6,0,-1,-5
7221441270,-3,15,0,28,13,4,3,6
7221441270,3,-6,1,-20,-10,-7,-4,-7
7221456324,-5,9,-4,4,-1,-3,-4,-2
7221456324,3,2,8,10,-11,-17,-14,-1
7221463805,-2,5,0,-3,3,5,7,0
7221463805,-6,-12,-6,3,10,-8,7,1
7221479409,6,11,6,4,-1,7,1,-1
7221479409,-1,-5,-6,-10,-14,-17,-9,-4
7221480049,0,4,-2,-3,0,12,-4,-4
7221480049,-6,-9,-1,0,6,2,-2,1
7221493765,2,9,5,5,1,-1,-2,0
7221493765,4,3,-7,-11,0,2,5,1
7221501149,-7,-6,3,15,1,0,-2,-2
7221501149,-4,-12,-10,-11,-6,-5,-4,-2
7221516256,-2,5,-8,-4,3,-2,-2,-3
7221516256,-6,1,11,6,-6,-15,-2,2
7221523746,-4,-12,-4,-9,-4,15,4,-2
7221523746,-4,-4,2,6,11,17,3,-1
7221539378,3,0,2,6,5,-2,-5,0
7221539378,8,-2,-7,-4,-7,-1,2,1
7221540156,4,-9,0,5,-2,-9,-2,2
7221540156,-2,-10,-4,-12,-5,-7,1,-3
7221553758,0,-2,-2,-3,1,1,1,0
7221553758,-1,-6,2,1,-1,5,-2,-3
7221561306,-10,-10,-5,0,-2,-1,2,-3
7221561306,-6,2,1,-4,-1,-3,-3,-5
7221576244,20,-2,-1,-1,-3,-3,1,2
7221576244,-9,-3,1,5,2,6,1,3
7221583768,-2,5,0,-11,-7,-5,-5,0
7221583768,-5,0,-8,-8,-1,-5,0,-1
7221599208,-11,-3,-4,-5,0,-2,-3,-4
7221599208,5,-3,-1,5,0,5,10,-5
7221606959,3,5,1,2,2,-1,-2,3
7221606959,1,-2,6,2,-4,-3,-3,0
7221613768,-2,-3,-9,-4,-2,-2,-2,-1
7221613768,7,2,-9,-2,0,3,-3,0
7221621236,-9,5,8,6,4,-2,0,-1
7221621236,8,-7,-4,-8,0,-4,0,-2
7221636255,-4,2,13,12,0,-2,2,2
7221636255,-3,-4,-12,-9,0,0,-3,-2
7221644486,-1,5,-3,-15,-5,-4,-2,-4
7221644486,-4,0,-4,18,10,0,0,-3
7221659415,11,5,4,4,-6,-3,0,5
7221659415,-8,4,2,3,5,2,1,-3
7221660115,7,1,2,9,8,7,2,5
7221660115,-18,3,7,-3,-5,-4,-3,-3
7221673760,-1,-6,-16,-23,-5,-4,-4,-8
7221673760,-7,-5,-6,10,-6,-4,-1,4
7221681241,13,7,-1,0,3,-2,-2,-1
7221681241,0,2,7,10,2,2,3,3
7221696213,9,1,4,-1,-1,0,1,0
7221696213,4,11,-1,-16,-1,-4,-5,-3
7221704343,-7,2,6,-3,-9,-1,-3,-4
7221704343,13,-2,1,-1,-5,-4,0,5
7221719445,-21,9,-9,-6,12,1,0,-5
7221719445,-26,-20,2,19,15,11,3,-7
7221720115,39,5,-2,2,-5,-6,-4,6
7221720115,-8,13,-2,-13,-15,-9,-6,-4
7221733796,7,-17,-2,-4,-6,-10,-2,2
7221733796,-3,31,5,-5,-4,13,-1,0
7221741262,-4,-8,-8,0,5,1,1,-7
7221741262,0,-5,3,7,-1,-8,2,-2
7221756284,8,12,-7,-1,-8,4,-6,-2
7221756284,15,14,0,-3,-4,-6,0,1
7221764433,-36,-25,2,12,7,8,3,0
7221764433,16,-13,-17,-17,4,3,0,2
7221779410,-28,-13,6,8,11,3,3,-6
7221779410,26,-9,5,3,-8,-8,-2,1
7221780208,-6,-7,-5,-20,-4,-4,-2,-2
7221780208,-4,-8,-1,9,-4,-8,-5,-1
7221793796,-18,-13,-9,-15,-22,-9,-7,-1
7221793796,2,-13,0,-6,4,-2,-4,-7
7221801236,21,5,0,5,-3,3,-3,6
7221801236,-5,1,-4,-16,18,0,2,-4
7221816119,-3,-2,14,40,15,15,6,5
7221816119,7,-6,-6,-13,3,0,-3,1
7221824473,-16,-1,-6,-8,-21,-20,-7,-7
7221824473,6,2,8,6,2,6,0,-1
7221839424,0,0,13,19,-11,-3,0,0
7221839424,-16,-10,-10,-22,11,0,4,-2
7221840151,-2,6,-10,-5,6,-3,1,0
7221840151,3,-6,3,-14,-19,-6,-5,-4
7221853714,-5,-14,-2,-31,-18,-8,-3,-5
7221853714,2,1,0,12,7,9,4,6
7221861238,4,11,3,11,4,-10,-4,-2
7221861238,-8,0,8,12,3,15,7,2
7221885162,0,8,7,9,9,2,3,1
7221885162,1,-4,1,0,-13,-30,-10,-3
7221885790,-6,-8,-8,-19,-4,13,-7,-7
7221885790,-5,8,-5,10,-17,-14,9,-2
7221899454,2,4,-11,-28,-10,10,-8,-1
7221899454,-1,2,4,11,-4,-3,-4,-5
7221900141,-5,-5,-5,19,-4,-10,-9,-2
7221900141,-2,-2,1,-17,14,11,7,1
7221913818,3,2,-6,1,0,-4,0,0
7221913818,4,6,2,-7,-4,0,0,-1
7221921217,-14,3,8,0,-6,-3,-4,-4
7221921217,1,1,-7,-7,-10,-9,-7,-2
7221936230,4,4,-7,-2,11,0,4,1
7221936230,-10,-7,3,15,0,8,0,-1
7221944450,8,1,-1,0,-4,2,4,2
7221944450,3,-5,-8,-3,-2,-20,-8,-1
7221958795,-4,-1,-2,1,1,20,5,-2
7221958795,-8,-6,7,9,-10,-8,-5,-1
7221966932,-2,-4,-7,-11,27,24,16,3
7221966932,3,-8,-3,-1,2,1,-1,1
7221973729,2,-6,-6,-14,-3,-12,-6,-3
7221973729,1,3,8,7,-9,-2,-2,-2
7221981236,1,-2,4,-8,-12,-6,-1,-2
7221981236,-1,-3,-9,4,5,2,-4,-1
7221996188,5,4,11,5,0,-1,3,1
7221996188,0,-7,-11,-5,3,5,-5,3
7222004391,1,11,6,2,-1,-1,4,2
7222004391,-9,-7,3,9,0,-1,-7,-3
7222018618,-9,-14,-10,-8,-2,-1,2,-3
7222018618,1,-15,-10,-9,2,-4,-12,-3
7222026893,5,-7,3,13,-2,-5,18,3
7222026893,1,-3,2,5,2,16,-6,-4
7222033752,-1,2,-4,-3,-3,-8,0,2
7222033752,9,10,0,0,-2,-2,7,3
7222041174,4,1,0,1,6,-11,-8,-2
7222041174,23,8,4,-1,-7,17,-22,0
7222056256,-36,1,-5,1,5,-1,16,-4
7222056256,-12,-14,-4,-7,0,6,5,0
7222064421,-2,-11,1,-2,-8,-11,-10,-6
7222064421,25,30,2,-1,4,-9,3,2
