timestamp,emg1,emg2,emg3,emg4,emg5,emg6,emg7,emg8
7377153396,-10,-107,-16,15,-10,-6,0,3
7377153396,-11,-63,-10,2,2,-2,-5,-4
7377154323,24,66,45,8,20,9,7,6
7377154323,-25,-40,-3,-36,-24,0,4,-1
7377155041,-18,11,-11,14,13,1,-1,-7
7377155041,-9,-39,2,-7,-4,-4,0,-1
7377158601,-20,-24,-44,-29,-9,-7,-1,1
7377158601,43,12,26,15,-2,-1,30,13
7377165083,16,53,25,4,10,21,-29,-4
7377165083,10,-22,19,11,10,8,10,3
7377173769,-22,-37,-18,13,-6,-5,-9,-7
7377173769,-24,-20,-29,-14,-1,-12,-11,-11
7377181454,10,12,-9,-18,-20,-10,-3,5
7377181454,15,24,18,10,-4,-3,1,1
7377195723,-8,5,-11,-4,4,4,27,-6
7377195723,-4,1,-15,1,6,13,-37,9
7377203770,-8,11,7,-5,-2,-7,-23,-10
7377203770,0,30,-6,-2,0,-9,-14,-5
7377210044,4,-6,13,20,-4,-7,9,5
7377210044,11,38,-7,-43,-36,-19,-8,-1
7377225174,-11,9,-3,32,2,10,9,-6
7377225174,-14,18,0,1,34,12,11,2
7377233714,-3,-14,-15,-60,-46,-8,-28,-4
7377233714,8,-18,15,58,42,12,17,-2
7377280669,-11,-13,0,9,-4,-4,3,2
7377280669,-5,-15,5,-13,-19,-10,-4,-2
7377281636,-3,-18,5,-2,3,2,3,2
7377281636,1,-18,-2,13,16,-5,1,3
7377282325,-1,-22,4,29,-13,-1,-1,-7
7377282325,-11,-12,-13,-55,-4,-3,-2,-6
7377286203,6,-4,-1,-6,-21,-14,-4,-2
7377286203,-3,-11,-4,-17,-5,10,2,-5
7377287698,-3,5,2,10,30,1,-1,-3
7377287698,9,18,6,59,3,-5,-5,-2
7377292385,-1,6,11,-5,6,-2,4,-1
7377292385,-5,3,-9,-29,-3,-14,-8,-5
7377301249,6,2,-8,-4,-19,2,-1,-1
7377301249,-7,-13,-20,0,-7,-4,-5,-6
7377315533,3,15,9,7,5,-6,-6,1
7377315533,3,13,3,5,-16,-5,-4,1
7377322383,6,24,4,4,20,12,7,2
7377322383,2,20,14,-1,8,8,-6,7
7377329880,-9,-23,-15,-5,-5,2,-10,-7
7377329880,0,4,-5,-3,-10,-1,9,-1
7377344829,-1,-4,-3,-21,-7,0,1,0
7377344829,5,-1,-5,14,9,-4,-12,2
7377352315,0,-4,1,8,3,7,10,2
7377352315,-12,-5,14,6,-4,3,-8,-4
7377361231,6,-2,4,-1,1,-17,-3,-5
7377361231,-1,-4,11,-3,-1,5,8,-5
7377375457,-13,-5,-15,-5,-2,-1,19,3
7377375457,1,-11,-11,-1,-1,-12,-3,-10
7377382306,2,0,-2,-6,-5,12,17,11
7377382306,-1,-5,5,-2,-1,15,16,-2
7377389745,1,14,7,-1,-5,-19,-29,-4
7377389745,4,-4,0,6,2,-5,19,0
7377404855,-15,-8,-2,-7,-3,0,-6,-4
7377404855,5,3,0,-1,-4,-8,-4,1
7377412373,2,1,-5,-4,0,3,-2,-5
7377412373,3,-6,0,5,1,4,2,5
7377421267,0,-10,-5,-8,-4,-8,-18,-4
7377421267,-3,-6,-9,-3,2,5,5,4
7377435561,-12,-8,6,5,0,-11,5,-4
7377435561,0,-16,5,0,-1,17,-16,-1
7377442355,5,-9,-2,-5,-4,0,-16,-1
7377442355,1,-8,-3,2,0,-2,10,1
7377449858,-1,-5,-6,0,-2,0,-3,0
7377449858,-5,6,-2,2,-1,-5,-11,-3
7377464833,-1,3,-2,-1,-3,-1,17,0
7377464833,19,8,-1,-4,-3,-1,-35,3
7377472373,-16,-2,-1,2,-1,-2,2,0
7377472373,1,3,-7,-3,-2,2,-1,-2
7377481262,-11,2,4,-6,2,2,-6,-2
7377481262,-4,3,2,0,-6,-11,1,-6
7377495531,13,6,-10,-11,-10,0,0,3
7377495531,-10,6,1,9,13,7,4,1
7377502359,-9,-4,10,27,11,8,4,-3
7377502359,-7,1,-9,-14,0,1,5,1
7377509904,15,19,3,7,1,2,-6,2
7377509904,2,-45,-13,-20,-15,-12,0,2
7377524877,5,39,0,-22,-13,-9,-5,0
7377524877,6,7,-2,-2,0,1,2,0
7377532360,-7,-5,0,0,-7,1,1,-6
7377532360,5,6,-33,-6,11,1,5,10
7377541236,-11,-55,-31,-38,-3,-1,-8,-14
7377541236,-6,12,11,-12,0,-4,-2,4
7377555504,-6,-12,6,19,4,-3,16,-1
7377555504,8,31,22,21,8,12,-12,0
7377562385,8,-3,10,15,3,-3,2,10
7377562385,-7,-10,4,15,-6,-2,2,-7
7377569891,18,13,-24,-24,6,9,1,0
7377569891,-29,6,3,-1,-9,-8,7,-2
7377584863,15,11,-2,-15,-14,-5,-7,3
7377584863,10,14,9,12,16,3,-3,-3
7377592290,-2,-24,13,21,4,2,-5,2
7377592290,1,-1,2,-7,-6,-5,-4,-5
7377601204,-4,25,-4,-7,-5,-5,1,-2
7377601204,-6,11,2,-13,-17,-5,1,-6
7377615546,2,7,-8,-9,1,0,-9,-3
7377615546,9,25,2,10,18,16,11,1
7377622308,1,-22,-4,11,10,-4,2,0
7377622308,-15,-16,0,-5,0,0,-8,1
7377637955,5,3,-4,5,3,-4,2,3
7377637955,-5,-17,-3,-27,-19,-11,-8,-5
7377644907,-10,-20,5,1,-14,0,0,0
7377644907,2,-23,-6,14,7,-12,6,-3
7377652290,-6,1,-14,-25,14,16,1,1
7377652290,-6,-8,23,22,-6,4,1,-2
7377661194,3,-4,-10,-10,2,0,3,-3
7377661194,-3,-1,-8,-13,-7,-6,-3,0
7377675513,3,2,17,25,-10,-8,-8,-3
7377675513,0,-5,-6,-23,-21,-18,-10,-5
7377682385,-14,-28,6,-4,31,13,8,-2
7377682385,-2,-9,-5,-8,-20,7,5,0
7377698055,-13,-3,5,26,25,5,2,2
7377698055,7,-3,-20,-25,-17,-5,-3,-3
7377704877,-9,12,-5,-3,-6,-5,-7,-3
7377704877,5,3,-3,-1,11,5,2,1
7377712292,6,7,-14,0,-13,-4,-4,0
7377712292,-12,-16,19,6,9,3,6,-3
7377721236,8,16,13,9,-10,-7,1,1
7377721236,-7,-21,-15,-10,-4,-2,-11,-1
7377735512,-5,8,11,8,6,-4,7,-1
7377735512,5,15,-6,22,11,15,3,0
7377742415,2,4,9,9,2,-2,21,-5
7377742415,-8,-13,-1,-4,15,22,-8,6
7377758072,8,15,0,-5,-8,-10,6,-1
7377758072,9,6,3,0,1,-11,-16,5
7377764840,-7,-9,-10,0,-6,14,14,-3
7377764840,6,19,-9,3,-5,-21,4,-1
7377772306,-6,-12,-5,-11,-2,3,-25,-12
7377772306,1,1,-1,2,2,-3,34,11
7377781196,2,10,-14,-5,-11,-7,-26,-3
7377781196,-2,-1,11,14,2,-3,2,-1
7377795565,-5,-2,1,-15,-8,-12,1,0
7377795565,-7,6,1,-2,0,2,-6,-5
7377802291,5,10,2,7,3,7,-1,2
7377802291,-6,-3,3,1,1,0,5,1
7377817976,6,-20,-8,-11,-6,4,-13,0
7377817976,3,-18,-1,5,4,-7,-16,-4
7377824889,-2,-20,0,1,-3,-9,-14,5
7377824889,7,-18,1,3,1,1,3,-6
7377832372,-14,-17,-2,-7,-7,9,0,0
7377832372,9,-7,-4,0,0,-1,-1,-1
7377841262,-6,12,-3,2,5,-3,-4,0
7377841262,-3,3,-4,-5,-7,-19,-11,-6
7377855582,-11,-5,4,-1,2,27,10,3
7377855582,-2,-6,-1,2,2,-13,-1,4
7377862250,7,-1,2,0,-2,-2,-2,-4
7377862250,0,0,0,2,-1,-1,3,0
7377878056,-2,0,1,-3,-4,-17,8,-5
7377878056,0,2,-3,-4,0,2,-9,-4
7377884841,2,11,-1,0,-4,-20,-10,4
7377884841,-8,1,0,0,1,21,-1,1
7377892335,-1,-2,-13,-3,-1,-4,-17,1
7377892335,12,17,0,-1,1,13,11,1
7377901245,16,-2,3,6,-2,-2,11,4
7377901245,-43,15,-9,-4,-5,-13,-31,-10
7377915467,-6,22,12,0,0,-13,6,-1
7377915467,14,66,-2,0,1,0,-14,7
7377922386,-31,-60,5,2,-4,20,30,-3
7377922386,14,20,5,16,0,-3,-12,-7
7377937980,20,27,2,-11,-10,-8,-2,-7
7377937980,11,61,-29,-9,23,12,2,8
7377944829,-25,-63,11,3,-14,-10,-18,-16
7377944829,-2,-4,24,34,22,10,19,13
7377952333,-4,46,41,-41,-16,-8,-21,-7
7377952333,-24,-58,-26,-14,-20,-19,0,-10
7377967317,17,1,-62,-10,-7,9,-2,7
7377967317,-2,14,53,-47,-2,-2,17,-6
7377975562,3,-34,-40,-28,6,1,-7,2
7377975562,-10,0,-20,-32,-8,1,3,2
7377982345,11,15,24,74,21,6,-3,3
7377982345,3,-30,9,-7,-17,-10,-1,-7
7377998116,-11,-3,-43,-18,-8,3,18,13
7377998116,9,-21,23,31,-5,-1,-6,-4
7378004770,-8,43,-50,-72,8,-1,-12,-2
7378004770,7,20,10,8,-3,6,9,3
7378012308,8,-10,21,34,14,5,-4,-5
7378012308,-10,-19,1,29,13,-6,-2,4
7378027319,16,39,29,-9,-3,-1,1,2
7378027319,21,3,-6,2,-30,-12,6,6
7378035548,-49,-23,-23,-8,-1,10,0,-13
7378035548,-3,34,26,10,-10,3,-7,3
7378042336,9,16,16,5,6,-11,-11,-2
7378042336,-4,-12,-49,-37,-17,-5,-10,-5
7378058036,6,6,15,40,2,-22,-5,0
7378058036,2,-25,1,3,17,20,7,-5
7378064858,3,-10,16,25,7,-4,-1,5
7378064858,-13,-33,-24,10,30,5,-2,-7
7378072336,12,-6,9,4,-28,-1,10,2
7378072336,-13,-27,14,-7,-11,-8,-10,-10
7378087361,6,4,-10,-22,-12,-13,0,-2
7378087361,1,2,-10,-1,-11,-6,7,-3
7378095522,11,1,10,19,12,3,-6,5
7378095522,0,-8,9,0,-1,-9,0,-3
7378102308,-19,-19,-16,14,2,8,1,-5
7378102308,0,-13,7,-16,-3,-2,-2,2
7378118097,2,-4,12,6,9,2,-1,-2
7378118097,4,1,-3,6,-5,3,4,3
7378124865,-6,5,10,-27,1,0,-1,-5
7378124865,2,0,-4,5,10,7,-12,3
7378132254,2,-15,-15,-15,-1,3,12,3
7378132254,-6,7,1,-3,-14,-10,-2,-6
7378147292,3,4,10,21,2,-15,-6,-1
7378147292,0,-7,-16,-2,13,19,8,1
7378155426,7,16,13,-2,-5,-4,6,3
7378155426,-2,2,1,-7,-8,-15,-8,-4
7378162274,-6,2,-6,-32,1,-7,-6,-3
7378162274,6,3,-9,20,8,10,7,4
7378178004,4,5,12,43,5,-1,-2,2
7378178004,-6,-8,-16,-54,-3,-1,1,-4
7378184746,-6,-1,2,-1,-17,5,-3,1
7378184746,7,14,9,12,0,-8,-2,2
7378192291,1,4,-1,-4,1,-4,-4,-2
7378192291,-8,-12,2,7,-4,2,1,-5
7378207312,12,7,0,-2,-1,15,-3,8
7378207312,-8,5,-6,-4,-6,-30,2,-7
7378215458,0,-3,-5,-8,6,16,-13,2
7378215458,-7,7,2,6,3,-13,15,-2
7378222347,-14,-20,-1,0,2,20,15,4
7378222347,-8,-1,7,4,-1,-6,-1,-1
7378238059,0,-11,-9,-12,-8,-9,-14,-6
7378238059,14,2,-8,9,9,-4,9,5
7378244791,10,4,6,6,1,-5,10,0
7378244791,-8,-15,4,-2,-1,-4,-9,0
7378260526,6,-7,1,-7,1,17,17,-2
7378260526,-3,-6,-5,1,-1,9,7,6
7378267282,-1,-2,-5,2,-7,-7,-3,-7
7378267282,-1,22,2,-5,-5,-2,10,2
7378283592,-6,-31,-12,-9,-5,-3,-2,-6
7378283592,-2,17,4,4,6,6,2,-1
7378285167,7,5,-4,2,-3,-8,-10,0
7378285167,0,12,0,-1,0,4,2,-2
7378297343,8,4,-6,-4,0,-8,-7,-1
7378297343,-5,-6,5,5,-2,1,-1,0
7378306163,-19,2,-8,-13,1,-1,-2,-4
7378306163,-3,-1,-3,-2,1,4,-7,-5
7378321195,-2,8,4,-1,1,-3,4,0
7378321195,-1,9,5,0,-4,-2,-14,-1
7378327363,2,-19,19,38,2,-4,-1,-4
7378327363,1,-21,-31,-11,1,4,-1,0
7378342788,9,23,7,-16,-11,-8,-4,2
7378342788,-4,19,8,20,1,1,-4,-10
7378358040,14,8,-27,-20,16,10,8,11
7378358040,-8,10,29,12,-7,1,-6,2
7378365513,-13,-5,-37,-37,3,0,3,-2
7378365513,-1,-16,-3,-7,-2,0,-8,2
7378366196,22,-8,16,2,-14,-7,-5,-2
7378366196,1,18,-1,19,5,-1,-6,1
7378388006,-1,-8,4,8,-7,-5,-1,-2
7378388006,-20,-8,-1,4,3,1,-2,-7
7378388664,0,32,0,-13,-6,-5,-6,-3
7378388664,15,9,9,-2,1,4,2,2
7378403011,-24,-36,-8,-9,-2,-2,-4,-9
7378403011,-5,0,-12,-4,3,-2,-7,-1
7378403666,17,-8,11,9,-10,-9,-4,2
7378403666,-9,5,-14,-28,-13,-7,-10,-2
7378425395,10,3,-5,4,-1,-12,-3,-5
7378425395,11,3,12,18,12,26,9,2
7378426273,-19,18,-10,-27,-4,-9,2,-4
7378426273,5,-37,-6,-5,1,2,10,3
7378441180,-7,-31,10,27,1,2,-8,2
7378441180,-14,-9,-12,-11,-2,-17,3,0
7378447315,19,10,19,11,9,18,7,2
7378447315,-6,2,-13,17,8,-10,-18,-8
7378462897,6,11,5,-2,-3,8,6,3
7378462897,0,-23,-3,-14,-12,-2,-9,-1
7378463729,-27,-21,-1,15,14,-5,4,-8
7378463729,16,-2,10,16,-24,-5,-1,4
7378485449,-1,11,-22,-32,4,-1,0,-1
7378485449,6,-7,3,19,3,2,0,0
7378486179,0,-3,-13,-23,4,4,0,0
7378486179,-12,-5,2,8,6,-3,-4,-4
7378501164,-4,0,6,4,-12,-10,-4,-1
7378501164,5,8,-11,-21,-24,2,1,1
7378507198,-9,-4,-14,8,-12,-19,-12,-6
7378507198,-4,-6,9,18,24,11,-1,-15
7378522985,0,14,9,30,31,11,9,6
7378522985,11,0,-2,-24,-3,0,-2,0
7378523666,-1,-13,7,6,-13,19,-27,3
7378523666,-23,-29,5,-35,7,-4,6,-9
7378538696,-11,13,12,-22,-20,-20,1,-5
7378538696,-6,-15,-12,-23,1,-8,-8,-5
7378544876,-4,-3,0,-20,-7,-2,-6,0
7378544876,7,19,-29,19,13,-13,-1,-4
7378561197,4,17,7,23,-16,0,-12,-6
7378561197,-14,-33,19,12,5,-1,-2,-2
7378567284,-4,-3,-25,-60,-8,-3,13,2
7378567284,16,10,-4,2,8,7,5,9
7378582939,3,10,4,11,18,3,3,0
7378582939,0,11,-19,-28,-7,-12,-11,-7
7378583669,0,11,7,21,-9,-6,1,-6
7378583669,9,17,9,-6,-14,-21,1,4
7378598727,-11,-20,-1,13,0,32,-5,-2
7378598727,8,6,4,1,-8,-11,6,1
7378604779,-18,18,9,14,11,4,-13,-2
7378604779,-2,5,4,-8,-12,5,0,0
7378621181,6,9,4,-6,0,-6,27,6
7378621181,4,11,3,6,3,5,-4,-3
7378627286,10,-5,-4,5,0,-17,-6,-2
7378627286,9,-10,-5,1,-7,11,-6,4
7378642963,-15,-18,6,1,6,-2,1,-2
7378642963,5,21,0,4,7,15,-2,3
7378643640,-36,-12,-2,11,0,-9,12,-7
7378643640,-21,-14,-1,-13,-5,-4,-45,-1
7378666927,4,-12,-6,-7,-2,-8,20,2
7378666927,11,-9,2,7,3,-1,-6,-1
7378667700,16,6,6,8,2,-2,1,2
7378667700,0,-12,-1,-11,-6,1,-3,-4
7378681170,-4,-5,-4,-2,-4,-2,-12,-3
7378681170,-8,-8,3,13,-5,-8,-4,-4
7378687308,7,-2,-10,-3,1,5,6,-2
7378687308,0,-5,-8,-10,-1,3,14,5
7378702874,12,10,-3,-3,-7,-4,-8,0
7378702874,-2,-8,2,-8,-7,-11,4,0
7378703809,-4,-2,7,19,10,2,0,-3
7378703809,4,-1,-7,2,1,10,10,1
7378718691,-9,7,16,17,10,4,-2,-4
7378718691,-9,-2,-15,-7,4,0,0,2
7378724744,9,8,-8,-14,-9,-1,-4,0
7378724744,-2,7,-3,-11,-13,-7,0,-2
7378741172,-4,11,2,5,-2,-2,-3,-1
7378741172,2,-1,4,5,-3,-5,0,0
7378747299,-21,-21,6,-2,-2,-1,-2,-7
7378747299,19,20,-12,-9,3,3,10,2
7378762933,14,20,13,16,4,-3,-3,7
7378762933,-8,-26,-35,-15,-5,-6,-10,-9
7378763687,4,-4,3,-4,-6,2,5,6
7378763687,-26,15,5,-12,-8,0,2,-11
7378778710,-5,-8,-22,3,22,10,-7,-3
7378778710,4,-41,15,28,-2,-4,-10,0
7378784808,6,29,-2,-8,0,1,-2,-1
7378784808,-3,-37,4,10,-1,-3,0,-1
7378799848,-3,12,5,-15,-21,-21,4,2
7378799848,-11,-6,-14,4,5,20,9,0
7378807320,18,47,5,-1,2,-6,-6,-2
7378807320,-17,-21,3,16,8,19,4,0
7378822980,-3,-34,-11,-13,-10,-9,-10,-7
7378822980,5,11,7,-8,-1,-2,3,1
7378823699,-11,11,0,-26,-18,-9,-3,1
7378823699,34,18,-6,9,-6,-8,0,3
7378838697,-22,-5,-3,5,-3,14,-2,-4
7378838697,-15,10,12,17,14,13,13,1
7378844781,-5,-31,4,37,15,-6,7,-1
7378844781,-3,-12,-10,-38,-16,-13,-16,0
7378859854,10,-11,-12,-12,-4,-17,-12,-11
7378859854,14,19,19,15,-31,6,-3,-1
7378867315,-12,-19,-22,0,17,4,7,0
7378867315,-8,-11,25,34,15,1,4,-1
7378882281,13,16,-9,-35,16,20,26,12
7378882281,7,18,-12,4,5,-12,-25,-4
7378889749,9,1,6,-2,-4,2,-2,1
7378889749,-12,-2,1,-12,-28,-6,0,-6
7378898658,-9,-27,-4,3,0,2,-3,-2
7378898658,4,17,11,-3,13,-3,7,0
7378904808,20,1,-23,14,37,6,1,9
7378904808,-15,-4,0,-4,-11,5,0,-6
7378919796,6,7,3,12,-10,-10,-2,-1
7378919796,11,1,-16,-24,-21,-29,-10,-3
7378927282,-12,-1,-2,-21,-21,8,-4,-3
7378927282,8,9,-12,18,38,13,7,2
7378943668,0,1,-5,-31,-41,-3,-8,-3
7378943668,-14,-7,5,40,41,18,11,-2
7378949783,12,-4,13,11,-23,-13,-6,0
7378949783,2,2,-34,-41,10,3,9,0
7378966821,-9,-11,23,13,-17,-12,-12,-3
7378966821,-5,-3,-19,-29,4,-3,5,-1
7378967753,-6,-8,1,-10,-5,4,3,-2
7378967753,6,11,8,5,-10,-4,-3,1
7378979809,0,-5,-7,-4,-1,-16,-13,-4
7378979809,-2,0,0,-17,-6,-4,3,-1
7378987269,-6,-8,6,9,7,26,10,0
7378987269,-2,-1,11,12,-4,-3,-8,-3
7379002173,2,5,-28,-13,10,2,-2,-1
7379002173,-9,-10,7,0,-7,0,6,0
7379009781,2,-8,-9,-9,-7,-17,-11,-5
7379009781,14,9,17,3,4,-16,-10,6
7379018693,-10,-1,-7,5,9,15,6,-3
7379018693,-7,1,-1,-7,-8,-8,12,-9
7379024833,-7,0,7,6,4,21,9,4
7379024833,-7,-17,-8,-9,-6,-10,-22,1
7379039840,20,16,3,4,6,6,21,8
7379039840,31,5,2,-3,-6,-7,0,3
7379047338,-21,3,3,-2,2,-6,5,-11
7379047338,-18,-12,8,8,-2,-1,-24,-1
7379062256,-3,-13,5,4,5,4,3,1
7379062256,-1,-8,-6,-4,-5,0,-7,-2
7379069811,18,-8,0,-3,-8,-9,-8,0
7379069811,9,-18,-6,-3,-4,-1,8,-2
7379085460,12,11,9,12,6,-4,-5,4
7379085460,-23,0,-13,-20,2,6,3,0
7379086092,-3,-3,2,8,4,-6,-11,-1
7379086092,-16,6,10,9,-4,-4,16,-2
7379099816,15,21,-6,-23,-11,6,-6,0
7379099816,4,-42,0,26,14,2,1,1
7379107285,-7,19,-4,1,9,10,8,1
7379107285,15,28,11,-4,2,10,10,4
7379122281,-24,8,-9,9,-1,-5,-3,-5
7379122281,3,15,21,9,0,-7,-14,0
7379129758,-6,-34,-38,-35,-9,-10,-8,-3
7379129758,21,5,21,11,-1,0,3,6
7379145462,-7,1,-28,-23,3,-5,-9,-4
7379145462,1,78,27,24,-7,-1,-2,3
7379146121,-18,-56,11,-8,-9,-4,-3,-3
7379146121,-5,17,-26,-7,4,5,8,-2
7379159777,9,28,29,22,5,-2,-7,-3
7379159777,-17,-3,-20,-5,0,0,-4,-1
7379167292,7,41,17,22,0,-1,20,-1
7379167292,-19,28,-23,-41,-12,-5,-20,-6
7379182267,-13,-11,15,7,9,5,3,0
7379182267,13,-45,3,-7,0,-1,-1,4
7379189789,18,17,2,24,3,2,-1,8
7379189789,-9,-38,-21,-15,4,0,8,-1
7379205417,-3,-5,-11,-11,-5,-6,-3,-1
7379205417,-3,28,-1,-8,-12,-4,-6,-1
7379206096,4,21,8,-16,-7,-4,-4,-4
7379206096,-8,-39,-1,21,-8,-8,-3,-4
7379219730,5,9,5,9,24,5,-1,-1
7379219730,6,10,-12,-15,-25,-1,4,3
7379227251,-11,-7,0,-10,-3,11,-3,3
7379227251,7,13,13,16,15,2,-2,1
7379242286,-3,-7,-2,-26,-8,-8,-3,-2
7379242286,0,-22,-1,-3,-14,-6,-1,-3
7379249671,4,-2,-6,4,10,-16,-16,-1
7379249671,3,14,12,-9,-8,7,-7,-6
7379265450,-8,-48,-13,10,4,-13,-1,-1
7379265450,7,-4,-6,-21,-5,8,-3,0
7379266145,-5,-11,-2,-13,-7,-8,-1,1
7379266145,-4,-6,2,17,1,1,5,-2
7379279802,-1,-23,-7,-9,13,8,-4,-3
7379279802,-3,-1,0,20,-8,-14,1,-3
7379287298,-3,1,-6,-17,7,1,-6,-8
7379287298,2,-5,-12,6,0,2,9,1
7379302138,5,19,31,-4,-15,4,2,1
7379302138,-6,-9,-14,-27,7,3,0,0
7379309763,-7,-15,-9,9,7,-9,-8,-7
7379309763,-1,-3,12,-23,-28,-9,-5,-3
7379325437,0,0,-1,44,22,0,4,4
7379325437,-13,-20,16,12,11,11,-2,-4
7379326125,-2,-6,-14,-35,-23,-13,-11,-5
7379326125,4,5,-12,-21,-10,-2,4,2
7379339695,-4,6,22,5,-1,-3,-9,-6
7379339695,6,5,-22,-15,2,0,1,3
7379347283,6,4,2,9,-25,13,10,3
7379347283,-1,6,2,-9,23,9,6,-1
7379362286,-10,-22,-18,21,12,-6,3,-1
7379362286,2,-6,-1,-1,-1,5,-1,0
7379369785,-1,14,4,8,1,-4,1,3
7379369785,2,2,2,-3,-9,-14,-5,-2
7379385448,-1,17,9,2,-11,17,4,0
7379385448,1,0,-1,8,17,-8,-2,1
7379386172,-6,-2,-10,-8,-9,-7,-7,-7
7379386172,1,5,22,27,10,-4,10,3
7379399755,1,3,-18,-16,-7,-7,-5,2
7379399755,3,14,-1,-7,-4,17,-1,-2
7379407259,6,0,7,11,6,-8,11,5
7379407259,7,24,-10,3,9,0,6,0
7379422283,-15,-23,-5,-9,-9,6,1,6
7379422283,17,2,4,-1,-2,3,5,0
7379429760,-34,-9,9,13,8,-6,3,-6
7379429760,7,-38,-5,3,1,-4,-57,1
7379445441,-4,-13,-6,-14,-13,-1,20,-6
7379445441,-3,-23,0,4,4,-13,-37,-2
7379446116,20,10,7,5,8,18,16,0
7379446116,-13,1,-3,-2,-2,-6,-12,-4
7379459821,5,-4,-8,-7,-9,-18,-4,-6
7379459821,-4,-14,2,2,0,5,7,3
7379467293,19,-16,1,1,1,-4,-10,-2
7379467293,-11,-8,-6,-3,-3,1,6,2
7379482259,-2,5,4,1,-3,-9,1,2
7379482259,7,11,2,2,3,-1,2,0
7379498000,-9,-3,-5,-6,-1,29,-5,2
7379498000,15,28,22,11,3,0,12,2
7379505365,-16,3,-13,-12,-5,0,-2,-2
7379505365,-10,-20,-30,2,-2,-5,-5,-8
7379506266,11,42,4,-1,-2,-1,-2,1
7379506266,-9,-38,-10,7,-7,-1,-1,-1
7379527936,28,37,23,-9,-2,2,-1,1
7379527936,-17,-23,-19,-8,-4,-4,22,2
7379528618,-12,24,-3,-19,-6,-11,-25,-2
7379528618,-31,-27,-5,-2,25,12,24,-10
7379542191,34,1,104,47,-9,-3,-9,5
7379542191,-16,-31,-80,-40,-1,1,9,4
7379549811,-4,19,-9,0,-6,-12,-1,-3
7379549811,20,42,28,30,1,1,-5,5
7379565472,-68,-25,-42,-39,-9,-6,-13,-23
7379565472,33,127,75,19,-16,-11,-6,7
7379566141,7,-2,45,62,1,12,31,3
7379566141,13,32,-68,-70,6,0,-16,3
7379579827,18,-27,-68,4,-10,2,-9,5
7379579827,-4,-37,-20,-15,-5,-6,-4,-4
7379587285,1,-10,-2,28,25,-3,-6,1
7379587285,-36,-12,46,47,-6,7,14,-10
7379602178,17,4,10,16,18,-1,6,9
7379602178,-5,-13,-15,-3,-7,0,-11,-2
7379609768,3,-4,23,-9,24,-1,-7,3
7379609768,7,-1,2,6,-12,-6,17,-1
7379625425,-1,10,-30,-31,-15,7,-40,-1
7379625425,-3,23,38,12,-1,13,37,2
7379626117,-1,-16,-11,-6,-12,-11,-5,-4
7379626117,1,-15,-6,6,9,12,-3,-7
7379647829,-8,7,6,-2,12,-26,6,-2
7379647829,11,-15,19,18,-3,21,-2,-1
7379648605,-15,-29,-24,-24,-26,2,-2,3
7379648605,2,-13,-10,0,19,-15,6,-7
7379662296,9,-12,23,6,-9,18,-45,9
7379662296,-8,-14,10,1,22,-22,-12,-6
7379669660,-1,-22,-15,-7,-10,8,12,-3
7379669660,-2,-19,-3,-12,-7,-17,-16,-1
7379685331,0,3,8,24,5,5,3,-5
7379685331,-6,7,1,5,4,1,-10,-2
7379686086,-1,1,-9,-42,-25,-11,-10,-2
7379686086,13,10,-18,-6,-8,-4,0,8
7379707788,-5,-10,1,-21,-4,5,17,-3
7379707788,-10,-3,11,11,8,13,6,1
7379708560,1,7,15,18,17,-3,8,-1
7379708560,-2,4,4,-3,-12,1,0,0
7379722225,-7,-1,-8,-2,6,6,15,-4
7379722225,1,11,12,-2,-8,-10,-3,-1
7379729746,5,-11,11,39,14,-2,-15,-3
7379729746,-12,-15,-12,-40,3,13,6,1
7379745438,-1,6,-13,-6,-12,-10,2,-4
7379745438,1,-8,5,-5,4,-18,-5,0
7379746157,1,2,-6,-1,-2,2,-16,1
7379746157,-1,-2,18,18,3,9,21,-1
7379759709,5,-1,0,1,6,14,22,1
7379759709,0,-4,-13,-10,-3,-3,-33,1
7379767323,-13,0,1,-9,-5,-5,6,-2
7379767323,-11,-6,2,1,-7,-5,2,-4
7379782233,2,7,-9,-5,1,-11,-9,-3
7379782233,-11,-13,-2,-1,-5,-9,-7,-5
7379789740,14,-7,-6,-13,1,11,15,3
7379789740,-4,1,-2,3,1,-4,-14,-2
7379805407,-5,-10,-2,4,-1,10,7,-5
7379805407,5,0,4,0,-4,-13,-4,-2
7379806076,-7,4,-8,-8,-2,-1,-2,-5
7379806076,-4,10,0,-5,-7,7,-9,0
7379827913,6,-2,-4,0,-2,-13,9,2
7379827913,-3,8,-5,1,1,-3,3,-5
7379828591,-6,-5,-6,-10,4,2,19,1
7379828591,8,2,1,6,-7,-6,-17,1
7379842260,-3,0,8,10,-2,-3,-1,0
7379842260,-7,-20,-7,-5,0,6,0,-5
7379849754,2,-8,0,-4,-2,-10,-6,-2
7379849754,2,-2,-2,3,-2,-2,4,-2
7379864763,4,2,0,-5,-1,0,10,0
7379864763,-4,2,9,7,4,5,-4,3
7379872967,-7,-2,-5,-7,-3,-6,-20,-3
7379872967,-3,5,2,2,-6,-11,-2,0
7379887949,17,-8,-5,-3,2,13,0,-1
7379887949,-5,2,-2,2,1,-6,11,2
7379888595,8,14,6,3,2,5,-5,-1
7379888595,-7,-20,4,-4,-2,7,0,2
7379902160,-24,20,0,-5,2,-10,-3,-12
7379902160,-5,-17,-6,-4,-4,3,19,5
7379909787,0,-3,-13,-4,-7,-3,0,1
7379909787,13,5,13,16,4,-3,8,6
7379924767,-11,8,-12,-15,-12,-7,-8,-6
7379924767,29,86,13,28,-6,-3,-14,-4
7379932912,-9,-85,-20,-4,14,3,2,-2
7379932912,15,54,-2,-17,3,9,24,5
7379947853,-45,-51,-12,-7,-8,-2,-23,-6
7379947853,-10,-1,-16,-13,1,-2,-4,-7
7379948645,14,-8,9,13,-11,-6,-3,0
7379948645,12,-16,-10,-8,0,-5,-7,0
7379962272,5,-5,7,-28,-5,-5,3,1
7379962272,-23,1,20,46,-1,4,6,2
7379969761,10,35,-22,-24,3,-7,-11,-6
7379969761,-15,-16,9,-11,-10,4,-5,-6
7379984777,29,14,-17,20,24,15,16,12
7379984777,-1,-40,11,1,-3,0,-4,2
7379992951,7,20,-6,-5,5,6,2,2
7379992951,-6,2,0,2,-19,-17,-10,-6
7380007733,-8,10,-5,-13,-13,-6,-22,-12
7380007733,11,19,14,-39,8,0,3,2
7380008539,-9,-2,-5,18,-5,-11,-34,7
7380008539,4,-1,-8,-19,-13,6,-19,-8
7380022109,1,8,12,30,12,6,34,6
7380022109,-7,-23,-22,-41,-4,-17,4,-16
7380029577,0,3,2,-32,-54,12,-31,2
7380029577,-4,-7,17,22,37,15,15,0
7380053442,26,-11,0,32,28,9,-8,14
7380053442,-30,-26,-4,16,2,-11,2,-8
7380054264,-2,-7,0,-17,5,-23,-14,-2
7380054264,3,1,0,-1,-27,-8,-2,-3
7380067769,6,2,3,-14,-4,-5,-75,12
7380067769,6,-23,-20,-6,8,3,18,-7
7380068569,-9,-5,12,11,6,-2,20,0
7380068569,-8,-20,-10,-19,-24,-1,-9,0
7380082104,-6,-11,26,42,20,-8,4,-9
7380082104,20,3,-29,-15,27,11,-6,9
7380089576,-8,26,21,-54,-28,0,3,-7
7380089576,-1,2,-20,1,31,4,11,-5
7380104596,2,4,-10,-5,-21,-11,17,-4
7380104596,3,13,36,19,-34,2,-4,4
7380112824,-6,-8,-30,30,24,8,23,-10
7380112824,-4,-10,-10,-45,-1,-10,-9,0
7380127762,-4,12,-2,2,-5,3,11,-1
7380127762,-5,-5,-19,-12,-11,7,-7,0
7380128574,1,0,21,29,9,-7,-4,-5
7380128574,6,1,5,17,-5,-1,2,5
7380142088,-4,-5,0,-19,-4,0,7,0
7380142088,-7,-8,12,-7,-22,-14,-6,-8
7380149592,6,-3,-7,20,14,-2,8,3
7380149592,-4,6,-1,5,12,12,4,2
7380164631,-8,-1,1,3,-1,9,17,-4
7380164631,7,8,-2,-2,2,9,1,1
7380172752,6,20,10,-4,-10,-5,-4,3
7380172752,-5,9,1,13,5,-12,-7,-7
7380187743,-1,15,20,-4,-2,-20,-9,-2
7380187743,0,3,-10,-9,-5,1,17,-5
7380188562,-4,-1,-18,-6,3,7,-13,1
7380188562,0,-4,1,14,3,15,20,5
7380202102,-5,-21,-12,-18,-12,-9,-5,-2
7380202102,-13,-11,-1,2,5,-7,7,-10
7380209590,-2,-2,16,19,11,0,-34,1
7380209590,9,-5,3,5,-2,-11,-8,2
7380224605,15,-10,-8,-7,-4,3,7,4
7380224605,1,-15,-7,1,2,-10,-8,5
7380232744,-18,2,-8,-5,2,20,19,-4
7380232744,-1,4,1,0,-7,-20,-9,-1
7380247756,3,-15,-6,-4,-5,-2,-1,-1
7380247756,4,-10,6,6,4,25,-7,0
7380248565,-5,-21,1,-2,4,7,35,-12
7380248565,12,-4,-4,0,-2,5,-37,8
7380262115,-33,-12,-2,-2,-1,-3,15,-4
7380262115,2,-3,0,1,-4,-7,-9,0
7380269603,14,4,5,1,1,-3,17,2
7380269603,1,4,-3,0,-1,2,18,1
7380284657,-3,13,-6,-4,-2,1,-12,-1
7380284657,-3,3,1,-3,1,-2,-2,0
7380292911,7,27,6,1,-4,-4,-19,3
7380292911,6,2,7,7,-2,-3,1,-7
7380307918,-8,-10,-17,-15,-3,3,-1,3
7380307918,-20,-24,-13,-2,0,2,4,-3
7380308621,14,12,-8,-12,-13,-12,1,0
7380308621,16,65,17,-3,-11,-4,-2,0
7380330411,-21,3,-15,-16,6,8,18,-3
7380330411,11,30,-16,-9,5,2,-9,2
7380331152,-20,-46,35,22,-4,-6,0,-6
7380331152,-8,0,-24,37,17,6,-9,0
7380344798,44,29,-16,-24,11,-3,-7,0
7380344798,4,10,7,-27,-4,-1,1,9
7380352944,-52,-6,-39,1,-5,0,9,-6
7380352944,-40,-18,-12,5,-9,-17,-18,-26
7380367923,8,50,44,56,-9,6,-1,3
7380367923,17,-2,-4,-34,8,-2,15,15
7380368588,19,-4,-23,2,16,9,19,6
7380368588,8,-6,3,9,-1,13,41,13
7380382294,12,-11,-48,-37,-19,-21,-48,-12
7380382294,-24,20,36,28,10,7,-4,-10
7380389758,8,37,12,12,-8,7,7,-2
7380389758,-17,35,14,-23,19,15,3,2
7380404648,2,0,-9,-6,-4,0,6,2
7380404648,3,-6,3,1,-32,-30,-22,-9
7380412944,-18,-32,-19,-4,36,-6,16,-10
7380412944,-3,-53,-9,-33,-31,-16,-17,-8
7380427917,-12,-22,20,-17,11,28,20,3
7380427917,5,-27,19,63,43,20,11,-4
7380428631,6,-25,-36,-43,-25,-31,-69,4
7380428631,12,-9,16,4,-9,-3,32,2
7380442201,-8,-37,-9,-18,15,-36,8,-6
7380442201,4,8,2,-5,-34,22,-44,-6
7380449733,14,15,20,10,8,15,21,2
7380449733,-8,-20,-2,-23,-1,-6,19,5
7380464735,-10,-1,11,26,-8,-10,12,3
7380464735,-1,-15,-14,1,0,-5,0,-11
7380472926,3,7,1,15,4,-6,-4,0
7380472926,2,-13,5,-20,-15,-2,-1,-2
7380487809,3,-9,-19,11,1,5,6,4
7380487809,1,12,8,1,2,-8,4,4
7380488598,5,3,13,-19,-10,12,12,-2
7380488598,-2,5,-13,6,6,-7,3,-3
7380502165,4,2,13,19,-1,3,-21,-3
7380502165,-1,8,-23,-31,-4,-7,-3,4
7380509625,0,0,4,19,0,9,22,7
7380509625,-5,2,-4,-12,6,-3,-41,-4
7380524736,4,8,27,48,5,8,36,7
7380524736,4,-9,-37,-36,0,2,-9,0
7380532991,-11,9,12,-3,-5,-5,-6,-2
7380532991,-1,-2,-6,1,9,0,-5,1
7380547821,1,7,5,6,-13,2,-9,-9
7380547821,1,9,3,-4,-1,-4,10,6
7380548631,3,1,-2,-2,-4,-5,-2,-1
7380548631,1,-2,-11,11,4,12,19,-1
7380562234,-16,-8,-14,-31,-13,-13,-32,-6
7380562234,5,-10,4,20,4,-5,11,1
7380569742,6,3,7,-5,-2,3,-5,2
7380569742,-3,-7,-2,1,-6,-15,-22,-7
7380584727,3,-9,4,2,5,6,25,1
7380584727,-10,-6,2,2,-4,-4,9,2
7380592815,2,-4,-2,-7,-6,-3,-5,1
7380592815,-1,-6,-6,-3,-5,-2,-4,-2
7380608366,3,-2,2,5,6,-6,2,0
7380608366,0,5,0,3,-1,5,4,-1
7380609043,-4,7,5,-5,-5,-3,3,-1
7380609043,-2,5,-4,7,2,0,-20,-3
7380622236,7,3,-11,-17,-5,5,5,5
7380622236,-12,2,5,0,0,1,-11,1
7380629666,-3,-5,-7,6,0,1,-12,-8
7380629666,-4,-2,7,1,-3,5,-4,2
7380644660,3,7,5,-4,-2,-4,-21,-2
7380644660,-1,2,-5,-2,-3,13,1,0
7380652838,5,-3,0,-3,-2,-12,-9,-2
7380652838,-2,2,5,4,-1,-3,24,4
7380667812,-6,4,0,-2,-7,4,-6,-6
7380667812,-1,2,-1,-5,-5,-15,-4,-4
7380668706,13,-1,2,-3,12,10,17,7
7380668706,-7,-6,1,24,4,1,-14,-8
7380682256,0,4,-27,-29,-9,-5,-9,-4
7380682256,2,12,6,28,3,-8,2,-2
7380689803,-27,15,12,10,5,5,-1,2
7380689803,3,-3,-2,-29,-16,-4,-4,1
7380704736,0,2,-10,-27,6,7,3,-3
7380704736,-6,-54,1,34,6,3,-11,2
7380712907,20,23,-4,-22,-14,-4,-8,-1
7380712907,-11,-27,-19,-25,-5,-6,-2,-3
7380727871,4,12,19,49,19,5,6,2
7380727871,2,-24,10,5,1,4,14,2
7380728542,-4,-57,-24,-11,-3,-9,-8,-5
7380728542,-5,31,14,-2,-10,-7,-13,-2
7380742209,-1,-14,9,10,-9,-5,-1,-2
7380742209,4,-6,-14,-32,2,2,-3,1
7380749704,-1,19,27,15,6,8,0,-9
7380749704,-16,13,-5,3,2,2,8,2
7380764708,7,8,-18,-16,-9,-9,19,13
7380764708,-1,42,-5,-19,-14,5,-39,0
7380772962,1,-3,2,30,16,14,10,-23
7380772962,10,-3,1,9,20,-1,6,8
7380787217,-23,-5,-1,-25,-62,10,-12,-14
7380787217,6,13,-1,4,10,-16,2,3
7380795402,-14,-13,3,-14,-9,-25,26,4
7380795402,8,-28,-1,42,49,52,-24,-2
7380802210,10,3,5,-11,-23,-15,-30,6
7380802210,-12,-15,-3,2,-27,-14,-1,-14
7380809602,-6,-12,-24,-3,23,2,-4,10
7380809602,-5,-2,5,-20,-5,-19,2,-4
7380824719,-5,-18,23,24,24,-3,-7,-11
7380824719,4,-16,2,11,-14,6,14,3
7380832949,2,-12,-15,10,0,-6,-8,2
7380832949,3,-4,-1,-3,3,7,9,4
7380847203,7,8,8,29,26,11,8,2
7380847203,-4,-6,1,-6,8,-2,11,-4
7380855435,-7,3,6,11,9,-1,2,-2
7380855435,17,10,-17,6,-4,3,5,6
7380870361,-7,-3,-17,-48,-5,-13,-4,-7
7380870361,0,14,17,9,1,3,7,-2
7380871044,11,13,4,25,-21,4,-6,8
7380871044,10,10,-7,-14,-4,-4,-3,-3
7380884764,-11,-4,1,-12,13,1,5,-2
7380884764,3,11,7,-24,-17,-4,-11,-1
7380892934,-9,-13,-8,-2,-5,6,-4,-3
7380892934,-2,-6,-27,-1,0,-9,1,-3
7380907205,4,-2,-8,19,7,12,14,5
7380907205,4,4,-13,-19,-2,-8,-9,1
7380915400,11,36,19,-5,-14,-3,-4,1
7380915400,-19,-10,9,-1,-12,-18,-6,-8
7380922195,16,15,3,3,5,3,-2,1
7380922195,-7,18,-7,4,11,-6,6,-3
7380938599,-8,-2,-11,-5,2,3,-4,-4
7380938599,8,-2,6,4,-2,6,1,6
7380944705,-16,-8,-10,-23,-11,-3,1,-7
7380944705,3,-10,-6,7,1,-15,-4,-7
7380953622,0,-10,-7,-13,-3,-11,17,3
7380953622,0,-12,-4,-9,-12,-9,-10,-12
7380967185,4,-25,1,9,0,-4,5,11
7380967185,-5,-11,-5,3,3,11,6,-7
7380976065,5,3,-2,-15,-6,-7,55,-15
7380976065,12,15,1,-6,-11,13,-6,27
7380989665,-11,-6,5,15,14,22,27,-1
7380989665,-11,-32,-3,-3,2,-5,11,0
7380998585,1,-13,1,-13,-6,-11,6,-13
7380998585,4,-1,8,12,-6,-2,24,-8
7381004658,8,-9,0,3,-2,6,-58,12
7381004658,0,7,-2,-5,3,10,18,3
7381013589,0,-8,-2,-8,-12,-2,-51,-4
7381013589,2,0,-3,-5,-8,-43,-19,-6
7381027193,-19,-5,1,2,6,25,9,1
7381027193,22,21,-4,-4,-4,8,10,1
7381036100,-14,-6,-2,-4,2,-9,-32,6
7381036100,26,4,10,6,0,4,-1,-2
7381049752,-8,70,-5,-8,-9,-24,16,1
7381049752,-36,-80,-15,8,7,5,-11,-14
7381058549,-13,53,-19,-16,-8,4,-26,-4
7381058549,15,-11,11,11,0,3,10,7
7381064722,7,-6,12,0,-2,-14,-7,-8
7381064722,4,12,-13,-24,-8,-7,8,0
7381073563,-18,43,-15,8,1,8,-1,12
7381073563,-1,39,18,2,2,18,9,-4
7381087126,-35,-82,-91,-24,18,-18,-13,-21
7381087126,74,47,50,5,-10,-1,-13,23
7381096045,-59,-11,34,10,4,-8,1,-17
7381096045,13,32,5,-14,-15,-5,-6,4
7381109763,-16,-23,-27,-5,-14,-7,-2,-11
7381109763,7,76,12,8,-12,-5,1,10
7381118560,-4,-52,-51,-5,21,13,-8,-9
7381118560,-7,-28,11,13,-3,5,6,3
7381124762,-4,10,21,-1,-3,-17,-15,-3
7381124762,-11,-60,-12,2,-20,7,-3,-4
7381133572,27,28,21,2,8,3,4,11
7381133572,-8,1,4,21,35,3,9,3
7381147210,21,27,2,-14,-11,1,10,-1
7381147210,-31,14,1,1,6,-25,-31,-11
7381163568,14,-15,-4,-40,-37,-4,2,10
7381163568,-8,0,-9,8,57,26,-15,-10
7381169709,10,-4,24,53,-15,38,47,10
7381169709,-8,21,-5,-8,-16,-25,-62,-8
7381178546,18,-30,3,-11,20,7,3,3
7381178546,-24,-27,15,60,-55,-29,-7,-4
7381184736,9,12,-9,-59,32,28,5,2
7381184736,-4,-25,-7,29,73,-2,27,3
7381193546,9,-15,-10,-23,-66,-13,-3,1
7381193546,-9,-12,-11,-6,-7,-15,-9,-11
7381207140,6,8,30,25,-20,-24,-15,-1
7381207140,3,-8,-25,-19,-28,15,19,-1
7381216017,-2,-11,-4,9,21,1,-2,-1
7381216017,-5,6,6,-16,4,17,10,-5
7381229639,2,-2,-10,-55,-29,-29,-11,-3
7381229639,-8,-12,-16,3,7,21,-7,-6
7381238561,12,19,18,48,7,-13,2,4
7381238561,-2,10,-11,-5,-11,-2,-2,-3
7381244549,-2,10,2,-1,13,-2,-2,-4
7381244549,-4,2,-2,4,-14,4,9,2
7381253597,6,15,-6,5,25,3,4,3
7381253597,-13,-14,-7,-27,-14,-2,12,-6
7381267074,-4,-5,3,-5,-2,-9,-11,-3
7381267074,5,17,-2,-10,-7,-7,6,3
7381276120,1,-6,20,17,1,12,0,-3
7381276120,2,-9,-27,-40,6,-26,-8,-3
7381289686,-12,-3,-3,12,-3,18,5,6
7381289686,-10,-13,7,8,2,-4,-3,-3
7381298574,-4,-7,12,5,-2,1,2,-1
7381298574,3,5,-6,-18,-15,-3,-6,1
7381304599,6,-1,6,11,-1,-13,-1,-4
7381304599,7,7,4,4,16,23,5,7
7381313616,9,3,-3,-13,-3,-8,15,3
7381313616,-9,-4,2,2,-2,16,-22,-2
7381327114,9,1,8,18,8,-2,-8,0
7381327114,25,8,11,-5,-5,-17,-2,-7
7381336069,-37,-11,-8,-5,-3,4,-7,-4
7381336069,-20,-25,-9,-3,1,36,-24,1
7381350373,7,-10,-6,7,0,4,19,6
7381350373,-24,-16,-4,-8,-2,-7,-4,-8
7381357184,18,-1,1,-8,-9,-11,-1,2
7381357184,-4,7,-4,-2,-1,-14,0,-2
7381364643,5,2,1,6,3,4,-6,-5
7381364643,8,6,4,-1,-1,-11,-13,2
7381373574,0,-1,1,-5,-4,-3,11,-7
7381373574,-13,-9,-2,-1,-3,-2,16,7
7381387167,2,-3,11,14,7,13,3,-3
7381387167,-7,0,-10,-4,1,-1,15,-3
7381396096,-11,-6,-11,-7,-3,2,-7,-2
7381396096,12,1,-4,-9,-7,-10,2,-1
7381410362,1,4,6,4,-3,-7,-19,3
7381410362,-2,6,-4,-8,0,5,3,-1
7381417183,9,4,-1,1,-2,-7,-15,2
7381417183,19,4,-3,-4,-1,11,7,1
7381424681,-23,-6,-2,6,1,-5,-2,-5
7381424681,-10,3,7,-4,3,-1,0,0
7381439663,-10,-22,-2,26,3,1,-1,-2
7381439663,14,10,17,14,-2,-8,6,2
7381447185,1,10,-7,-14,-1,1,1,-1
7381447185,-5,6,-2,4,10,9,0,-1
7381456077,-16,-13,-6,0,3,5,4,-2
7381456077,-6,8,14,18,-8,-6,1,2
7381470975,6,-44,7,-1,7,1,-5,-1
7381470975,-6,20,-23,-35,-13,-3,0,-4
7381472543,20,23,5,-25,-11,-10,-11,0
7381472543,5,28,2,14,6,5,7,4
7381484660,-23,-3,13,4,6,3,4,-1
7381484660,10,5,6,9,-6,-1,7,5
7381493560,-1,-14,-13,11,18,8,-5,-2
7381493560,5,4,-9,-16,0,-8,-5,-9
7381507247,-4,50,11,9,-14,-12,0,-5
7381507247,7,-41,5,12,19,8,-7,1
7381516086,-4,35,-21,-39,-23,-6,-8,-3
7381516086,-24,8,11,-2,-3,-5,2,-2
7381531063,30,64,-15,7,13,0,3,4
7381531063,-44,-37,-12,1,-11,-7,-6,-16
7381532568,19,30,14,2,-8,-2,1,3
7381532568,-19,-50,-11,-1,-2,-9,-11,-4
7381553577,-17,-25,-17,-24,-14,-8,-5,-7
7381553577,12,22,13,14,-1,10,9,2
7381555062,12,-22,-5,0,14,12,34,7
7381555062,-8,1,-9,-8,26,-13,-23,-9
7381567184,4,-26,10,15,-16,21,9,4
7381567184,21,13,7,-9,-2,-8,3,4
7381576035,-24,-20,1,15,0,5,-4,-5
7381576035,0,-29,2,7,36,-7,8,4
7381591004,16,0,-3,-14,-7,-19,-11,2
7381591004,1,-19,-6,2,13,14,4,3
7381592564,-7,2,0,-16,-24,1,4,-7
7381592564,0,1,-7,-6,-30,-2,11,-2
7381613503,-4,-10,11,46,22,6,-1,4
7381613503,8,7,-7,-35,-17,-4,1,-1
7381615037,5,-12,-5,-21,10,5,1,3
7381615037,-8,10,4,-4,-6,-7,-3,-2
7381627110,-8,-16,-22,8,-17,-5,-8,-7
7381627110,-4,0,11,36,12,28,10,0
7381636091,-3,5,2,28,15,-22,-11,2
7381636091,-1,-20,5,-28,-7,11,-3,-11
7381650953,8,28,-27,-43,17,-24,7,1
7381650953,4,2,2,8,-28,-5,-14,7
7381652527,-12,-31,-3,-18,13,18,-7,-12
7381652527,17,28,23,70,-4,20,13,9
7381673430,-22,-16,-34,-67,19,-10,1,-5
7381673430,-26,-33,-8,-39,-11,-16,-8,-10
7381674995,32,13,-33,12,-15,-18,-4,8
7381674995,9,-7,-26,-22,12,17,8,-1
7381687094,-1,6,19,34,0,3,-4,2
7381687094,-10,-8,-14,-14,-6,-8,-2,-4
7381696479,7,23,3,46,0,-7,-7,7
7381696479,3,-5,-3,-11,-1,-1,15,-4
7381710808,1,-27,-4,-10,-12,-1,-50,-1
7381710808,7,23,-8,-3,-1,-13,11,1
7381717103,-8,-2,12,-11,0,11,-20,-4
7381717103,-2,3,-6,-2,-10,7,-2,-1
7381733591,9,12,11,-9,-11,-4,10,-7
7381733591,-22,7,8,18,5,-8,20,0
7381735045,-1,1,19,-3,-4,-17,-10,-5
7381735045,6,-1,-8,-19,-3,25,1,6
7381747158,9,9,14,22,0,-22,6,-3
7381747158,27,27,6,8,16,38,-40,8
7381756065,-21,-4,8,-9,-10,-11,21,-3
7381756065,-22,-13,-9,-7,-7,-17,-63,-8
7381770389,9,-22,5,7,-3,-2,38,1
7381770389,14,-20,3,9,3,-27,-18,9
7381777163,14,-13,-2,-14,3,37,-47,6
7381777163,2,6,3,3,-7,-28,-3,-5
7381793507,-26,-5,7,2,-5,18,-16,-6
7381793507,-2,-7,0,-3,-2,-33,-2,2
7381795018,6,-23,-4,2,3,24,14,-1
7381795018,-2,-26,-14,-4,-1,-7,13,2
7381816048,2,-15,2,0,-4,2,-5,3
7381816048,3,8,4,3,0,-4,10,-7
7381817569,-4,5,-7,-1,-1,-6,6,-1
7381817569,-5,-1,-3,3,-1,0,3,0
7381830294,8,16,-1,-6,-3,3,4,0
7381830294,4,17,2,0,-10,3,-9,-1
7381837037,-17,-5,3,-4,-5,-8,5,-6
7381837037,3,27,-8,1,11,3,9,3
7381853476,-7,-17,-4,-9,3,3,1,-2
7381853476,7,15,8,20,1,6,6,-4
7381855045,-29,6,0,-11,-7,-13,-1,-5
7381855045,25,22,-8,-14,-5,-6,9,-1
7381867208,1,18,14,8,0,8,4,8
7381867208,-23,-27,2,25,-15,-3,-10,-15
7381876022,4,-15,-17,-40,1,-9,-5,-2
7381876022,-2,-21,-27,-15,9,6,-2,-4
7381890321,4,-68,-6,5,3,1,-4,0
7381890321,19,46,7,6,4,2,13,10
7381897165,-21,-6,7,15,5,5,11,-6
7381897165,-21,51,19,-4,-14,-15,0,2
7381913535,8,-14,-16,-11,2,11,-8,-3
7381913535,-32,-27,13,13,6,-1,3,-10
7381914997,25,-19,-13,-25,-7,-10,9,6
7381914997,4,27,6,0,-6,3,-18,4
7381927208,-8,39,6,6,13,6,10,1
7381927208,-13,2,4,9,-3,1,-8,-5
7381936048,13,28,-16,-25,-2,-1,2,4
7381936048,3,-24,-2,-1,-6,-9,4,3
7381950381,8,7,13,12,-11,-7,-4,-1
7381950381,-15,-42,-1,-13,7,7,-11,-8
7381964667,9,5,11,23,7,-3,8,5
7381964667,7,-3,3,-7,-27,-13,-1,-2
7381973585,-49,-20,0,18,2,7,1,-1
7381973585,27,9,-4,-6,15,3,6,4
7381975030,-15,-17,3,25,6,7,3,1
7381975030,10,-17,2,15,14,-4,2,-2
7381987175,1,6,-11,-18,-22,-26,-19,-12
7381987175,-15,-23,-10,-29,-19,2,-6,-1
7381996021,6,7,-7,-2,-31,-11,0,1
7381996021,-16,-9,10,19,44,12,2,-4
7382010412,10,23,-2,-22,11,16,9,0
7382010412,-5,-4,5,-5,-4,-15,-9,-10
7382017060,17,8,-15,-4,13,9,-3,0
7382017060,13,16,14,16,-15,-9,3,7
7382033562,-11,-29,-4,-9,-3,0,0,2
7382033562,-1,-5,-18,-4,-3,-5,3,3
7382035040,-1,21,13,-1,-9,-6,-6,-7
7382035040,3,-2,7,0,-15,0,-1,-2
7382047210,-8,0,-1,-6,3,-4,-3,-6
7382047210,4,0,-12,2,14,9,2,3
7382056060,-5,-3,10,8,-5,-1,10,0
7382056060,-7,-9,-5,-6,8,6,1,-2
7382070417,24,18,7,17,-10,-1,-1,4
7382070417,4,9,-4,-18,7,-11,-2,-1
7382077153,-29,-12,-4,-1,4,4,-5,-8
7382077153,7,-2,-19,-8,-9,0,0,2
7382093475,6,21,7,-4,5,-6,0,-1
7382093475,-8,-8,8,6,-14,-6,-9,-2
7382095018,8,5,-11,-5,6,-4,-2,0
7382095018,-6,-1,3,0,2,-2,0,-1
7382107126,6,6,4,14,-2,6,-4,0
7382107126,-1,6,-4,-4,-3,-2,10,-1
7382116038,-4,0,8,1,-4,-4,-10,-3
7382116038,-3,-2,0,0,-8,4,5,-1
7382130329,10,0,-10,1,3,-5,-1,3
7382130329,13,3,-2,-5,-7,-7,1,0
7382137162,-11,13,5,2,-1,7,-8,-1
7382137162,1,-4,-2,-12,-7,-14,7,2
7382153536,-2,-7,-1,3,0,16,6,-6
7382153536,-10,-22,-10,-8,0,2,6,3
7382155026,8,-29,7,8,0,-16,13,6
7382155026,2,-12,-5,1,4,4,2,-7
7382167183,-12,-7,1,-3,1,7,5,2
7382167183,29,0,0,1,2,4,0,1
7382175991,-14,-11,-1,0,0,-5,5,-4
7382175991,-20,-16,3,-2,1,-3,-5,-2
7382190316,11,13,-3,-3,-4,-7,7,-4
7382190316,-6,13,-6,-2,-1,1,0,-2
7382197159,18,12,2,4,2,4,7,3
7382197159,-5,-3,-3,-3,-1,2,-1,0
7382213537,-1,-16,-6,-4,-5,-11,-12,-3
7382213537,-5,0,-3,-1,-2,3,-1,4
7382215039,10,-6,2,-1,-3,-6,-8,-3
7382215039,-24,-5,0,0,6,8,7,-6
7382227128,5,7,0,-3,3,0,-4,1
7382227128,12,3,12,13,1,-1,-6,-1
7382243507,-26,4,-17,1,1,-5,1,1
7382243507,3,-1,4,2,-4,-10,-25,-4
7382250360,-12,-7,-25,-30,-8,-7,-6,-5
7382250360,2,22,10,18,8,13,7,3
7382257101,-5,5,20,4,9,3,1,-10
7382257101,33,9,-15,-24,0,3,9,13
7382273462,-5,7,-15,-18,0,-1,-9,3
7382273462,-26,-29,-10,-24,-20,-15,-2,-8
7382274961,13,1,9,27,5,3,6,2
7382274961,-28,3,-6,12,10,11,-3,-4
7382287084,28,-7,14,21,-13,-13,-9,-4
7382287084,-12,9,-13,-37,19,17,5,4
7382296016,-16,5,2,12,-5,-2,-16,-5
7382296016,20,69,22,8,-7,-5,0,0
7382310410,13,-95,-23,13,-5,1,3,4
7382310410,-16,46,20,15,-1,-7,-4,-3
7382317199,-2,5,3,-7,0,3,-8,-4
7382317199,8,-36,-32,-34,-6,-3,2,-4
7382333436,-19,44,9,7,3,5,8,-4
7382333436,14,-17,-1,10,-3,-6,1,4
7382335003,2,0,-7,-16,-3,2,-6,3
7382335003,-9,-1,3,3,-17,-9,-3,4
7382347190,13,21,9,1,7,0,1,-1
7382347190,-13,-9,-1,-1,2,3,1,-6
7382356024,-3,-15,-12,-4,-6,-12,3,-2
7382356024,4,-21,5,2,-1,6,-14,-5
7382370444,-4,4,8,16,14,6,3,2
7382370444,-16,-13,-10,-5,-9,-3,2,1
7382377086,2,-7,-5,-9,15,4,3,2
7382377086,16,-27,1,21,-4,-3,-2,-5
7382393510,-49,4,18,-3,1,-1,2,-6
7382393510,8,-8,-11,5,-2,-9,-9,0
7382395015,15,0,18,16,0,-4,8,2
7382395015,-11,-14,-9,-15,-4,10,2,0
7382407130,8,10,-14,-10,2,-9,-8,-1
7382407130,-5,-7,36,61,-12,6,3,-7
7382416046,-11,-8,-24,-52,12,-5,-5,-6
7382416046,15,28,36,55,-4,3,12,8
7382430336,-17,-9,-25,-43,14,3,-3,-8
7382430336,6,13,0,-2,-10,-5,-3,3
7382437198,7,14,5,-21,-21,-10,-8,-3
7382437198,-14,9,-2,-17,6,2,-1,-4
7382453369,13,-15,-6,-6,-9,-2,2,2
7382453369,16,-16,-21,0,-2,-10,-5,-5
7382454950,-2,7,14,22,0,12,1,3
7382454950,-14,-27,-1,7,2,0,3,-5
