timestamp,emg1,emg2,emg3,emg4,emg5,emg6,emg7,emg8
11827387400,0,1,10,-9,-3,-2,-2,-2
11827387400,0,-3,-11,-7,-4,-4,-3,-1
11827388119,1,2,7,3,3,1,3,-2
11827388119,-4,-2,-14,-1,-1,0,0,0
11827388996,-5,-7,14,4,4,2,0,-3
11827388996,0,3,3,4,-5,-2,-1,-3
11827389666,2,-7,-30,-11,-4,-5,-6,0
11827389666,0,2,41,20,-4,-3,-1,-5
11827400439,0,-1,2,-18,3,7,5,-1
11827400439,-3,-5,-13,-5,1,0,-1,-1
11827409658,-2,-1,-5,-11,-8,0,-1,-2
11827409658,2,-2,-32,3,9,0,-2,0
11827415397,-1,4,36,-4,-8,-7,-7,-3
11827415397,-1,4,-1,18,8,2,-1,0
11827431121,-7,-4,23,8,3,-1,-2,-1
11827431121,-3,-7,-19,-8,-7,-3,-2,-2
11827439116,0,-2,17,4,-8,-3,-1,1
11827439116,5,4,-5,-11,7,1,3,1
11827445429,6,6,1,0,-2,0,1,2
11827445429,-2,-3,-1,-4,0,0,-2,-1
11827460486,-1,-2,-28,7,7,0,-2,-3
11827460486,0,4,3,-2,-6,-1,-2,-3
11827468827,-3,-2,11,11,0,0,-1,-3
11827468827,0,-2,-25,-24,-4,0,0,-1
11827508550,-2,4,15,9,-3,-3,-1,-3
11827508550,6,3,-13,-2,1,0,0,-1
11827509545,-3,0,20,0,1,-1,-1,0
11827509545,-1,-1,11,4,-4,-4,-3,-1
11827510301,-4,1,8,3,5,1,2,-1
11827510301,2,4,-3,3,0,1,1,-3
11827513301,-1,2,5,-1,0,-1,1,-1
11827513301,0,-9,-13,-4,-1,-2,-1,-2
11827520233,4,5,-12,-4,-4,-2,-1,2
11827520233,-2,3,8,-2,-4,-3,-3,-2
11827528458,0,-10,-10,0,-1,0,0,2
11827528458,-13,-3,5,0,-1,-4,-2,-5
11827535293,1,-3,-34,-10,-5,-4,-3,-2
11827535293,1,7,32,2,-1,0,-2,-1
11827550859,-1,11,14,-2,3,6,1,-4
11827550859,-4,-2,-19,10,2,-3,-3,-4
11827557740,-1,-2,-2,-3,2,-1,-7,-1
11827557740,0,0,-27,-8,-11,-14,16,0
11827565241,-4,-1,-20,-12,-11,-3,-32,-5
11827565241,-2,-6,28,7,4,5,24,-2
11827580119,7,-3,7,5,12,21,2,3
11827580119,-3,-17,-40,-1,5,3,8,2
11827587641,-1,-5,14,-5,-8,-13,1,0
11827587641,0,0,-19,-8,-6,-1,-2,3
11827596627,7,0,12,4,-4,-6,8,-4
11827596627,-2,-16,-11,-11,-10,-22,-17,-11
11827610802,19,30,17,16,18,26,12,25
11827610802,-25,-47,-17,-15,-2,11,10,-12
11827617709,-5,-8,40,5,-4,-1,-1,-1
11827617709,-25,-2,14,4,-1,-3,-9,-18
11827625216,20,3,-11,5,-6,-11,-4,-2
11827625216,0,19,27,-7,-2,-4,-12,4
11827640208,-8,-14,-22,-2,-6,-5,2,3
11827640208,3,-55,-68,-18,10,7,-2,7
11827647579,-21,45,67,20,-6,-7,-1,-14
11827647579,15,32,17,-3,5,2,3,7
11827656594,-4,1,5,-9,-3,-2,-4,-8
11827656594,10,31,29,10,-3,1,-3,5
11827670831,-4,-40,-51,-11,-1,3,4,-1
11827670831,14,11,20,6,-1,-4,-6,4
11827677708,-12,-27,8,-1,-3,-7,-7,-2
11827677708,8,-4,-57,-3,1,7,0,3
11827685211,-4,-1,44,-6,-5,-4,6,-2
11827685211,-9,3,10,4,3,1,-4,-3
11827700235,3,-16,-28,-3,3,-5,1,-11
11827700235,-8,14,-21,-6,-4,-1,4,-1
11827707698,-12,-29,-10,-4,-7,-13,-24,22
11827707698,26,-21,-31,-7,-15,-31,40,1
11827716707,-24,-24,20,-10,-4,42,-32,15
11827716707,2,22,1,-5,13,10,8,-20
11827730868,23,44,26,26,-2,-1,24,32
11827730868,-10,22,13,14,37,47,1,4
11827737672,-2,6,35,-6,-15,-23,15,-4
11827737672,-2,2,14,1,-11,-2,-3,0
11827745182,-8,-35,-72,-17,-4,-16,-7,-24
11827745182,9,16,11,-7,-20,-25,-21,5
11827760243,18,42,-26,10,-2,-7,-1,-3
11827760243,-7,-6,67,25,-7,7,-2,5
11827767790,0,3,-39,-12,52,19,10,-11
11827767790,0,0,6,11,-17,-4,-13,0
11827776615,-5,-4,-15,-38,7,0,-2,0
11827776615,4,-1,9,17,1,-18,-8,-2
11827790927,-16,-22,16,38,-7,0,1,-6
11827790927,3,-4,-11,-16,-12,0,-11,-3
11827797772,0,-7,-36,26,39,3,6,-1
11827797772,-2,-7,3,-4,-3,-1,-1,5
11827805273,0,-5,1,-3,-4,1,-4,-11
11827805273,-15,-8,-29,-20,-30,-11,-10,-6
11827820264,12,23,85,6,-1,-8,1,-2
11827820264,4,-10,-26,-15,13,11,5,7
11827827629,-6,-7,-11,-3,-10,-2,-4,-8
11827827629,5,-2,-33,-14,-4,-12,-4,-4
11827836581,-6,-4,18,-1,-14,2,4,-1
11827836581,-6,9,28,-1,12,6,0,3
11827850786,7,3,26,-10,-14,-9,-1,-3
11827850786,-2,-10,-7,3,6,2,14,18
11827857715,12,2,-49,-4,5,12,-3,3
11827857715,1,9,55,12,0,3,-1,-11
11827873358,-12,4,-11,-9,-1,0,1,-17
11827873358,-7,-11,-17,3,7,1,-17,29
11827880096,2,8,-2,13,-5,-7,-7,-29
11827880096,9,2,3,-7,-11,-6,2,6
11827887697,5,-6,-33,-18,-8,-2,-5,4
11827887697,-4,9,31,3,10,3,-2,-16
11827896705,-3,-9,-19,-3,-10,-8,-5,6
11827896705,-5,-20,-20,-13,-12,-9,-3,-5
11827911000,-1,17,11,0,2,-2,-8,-5
11827911000,-4,-5,-1,12,3,3,1,-3
11827917648,0,3,-16,3,4,0,5,3
11827917648,-1,13,17,-3,1,-3,-1,-1
11827933431,-5,-33,2,-10,-13,0,2,6
11827933431,0,-1,-30,-11,6,4,-3,-8
11827940280,-5,4,11,-3,-2,-4,6,4
11827940280,-4,-10,-42,-5,1,-1,-4,-3
11827948439,1,0,3,-3,1,-1,-2,1
11827948439,-3,-1,41,21,-5,-2,0,-11
11827955106,0,0,-16,-21,-8,-5,-3,-1
11827955106,-4,9,27,9,-3,-3,-3,5
11827970928,-2,-5,-46,-6,4,4,2,-2
11827970928,7,2,-3,-3,1,-1,-1,-6
11827985304,-3,2,3,5,-7,-4,-2,4
11827985304,0,-3,-27,-12,-4,2,-1,3
11827993376,-3,-13,-15,-6,6,3,2,-1
11827993376,-4,14,42,14,1,-3,-4,-6
11828000278,2,-7,22,9,0,-4,0,1
11828000278,-3,3,-12,-5,-9,-2,1,1
11828008260,-2,1,8,-1,5,-1,-4,-7
11828008260,-3,-13,-35,-14,2,5,1,-2
11828015212,2,0,0,9,-4,-6,-3,2
11828015212,0,2,15,0,4,-4,-3,-3
11828030917,0,2,22,11,-3,-1,1,3
11828030917,3,7,-30,-12,-4,-2,-3,-1
11828037645,1,3,-32,-10,-4,-2,0,-3
11828037645,-6,-5,42,5,3,3,-1,-1
11828053450,6,5,-10,9,-7,-2,-1,0
11828053450,5,-2,16,-3,0,0,-1,1
11828060151,-14,1,-5,-10,3,0,-2,-6
11828060151,2,-9,-13,5,-1,-4,-4,1
11828068260,0,4,28,-3,-5,0,0,2
11828068260,-1,-6,2,7,5,1,-2,-3
11828075207,-3,-4,-16,7,2,2,-1,1
11828075207,6,13,22,-6,-5,0,-2,2
11828090959,-3,6,-15,-9,4,1,1,-2
11828090959,-3,-12,-11,-11,-2,-3,-3,-3
11828097695,2,-22,-23,-3,-9,-1,0,-3
11828097695,-9,4,1,6,5,1,0,-3
11828113388,5,-4,5,7,-1,-1,2,1
11828113388,0,-1,-25,-11,-6,1,1,1
11828120181,-2,7,32,2,5,1,0,-4
11828120181,2,-1,25,2,0,-1,-1,-3
11828128335,0,2,-15,1,-4,-4,-1,-2
11828128335,0,-2,-10,4,4,-1,0,-1
11828142703,-9,-11,-5,-11,0,1,0,1
11828142703,4,-2,-3,15,-4,0,0,0
11828150963,-5,6,11,-19,0,1,-1,-3
11828150963,-6,3,16,1,-1,-3,-1,-4
11828157732,2,-2,18,7,-7,-4,-4,0
11828157732,2,-7,-53,-15,6,2,2,5
11828173417,0,4,1,5,-1,-1,-3,-4
11828173417,-2,2,18,1,1,1,-3,-4
11828180210,-1,5,-9,-3,-5,2,-1,2
11828180210,-5,-1,13,9,1,-2,-1,-3
11828189080,-3,-7,-2,-2,-5,-3,0,-1
11828189080,1,3,-2,2,-5,-1,-3,-2
11828202577,-1,3,-21,-14,3,3,-1,1
11828202577,-8,-10,16,-3,-2,-2,-3,-4
11828211606,1,4,-12,23,-2,-7,-4,-1
11828211606,-5,10,30,-5,0,-2,-2,-3
11828217686,2,-10,-17,-1,5,-1,0,-3
11828217686,8,7,-10,-17,-9,-4,-2,1
11828234081,-2,4,20,0,-1,3,-1,-3
11828234081,-4,-14,-28,-8,-8,-4,-4,-3
11828240114,2,6,-12,-5,-5,-3,-1,1
11828240114,-7,5,21,-2,1,3,1,-2
11828249104,10,-8,11,7,9,4,2,0
11828249104,5,5,-8,3,0,-1,0,0
11828262549,-8,-4,16,-1,-2,-3,0,-3
11828262549,-5,-24,-37,-5,-4,-2,-2,-3
11828271585,-5,-2,3,-5,-5,-1,-2,-1
11828271585,1,4,26,6,4,2,1,-2
11828277574,4,2,-53,-1,1,0,-1,-2
11828277574,5,12,19,8,-4,-3,-2,0
11828294068,-2,3,-3,-13,-2,1,-1,0
11828294068,-4,-14,-10,9,2,-1,1,0
11828300048,-1,7,17,-10,9,-1,-1,-1
11828300048,6,-3,-23,7,4,3,0,1
11828309104,-8,-5,-5,-7,-3,-1,-1,-1
11828309104,-1,2,25,16,5,0,0,0
11828322605,-3,-2,7,3,-6,-3,-2,-3
11828322605,-3,-6,-15,-12,-5,-4,-4,-3
11828331587,-5,1,1,-13,-2,-3,0,0
11828331587,3,5,-7,4,3,1,-2,-2
11828337591,6,7,38,18,2,2,0,2
11828337591,-6,-9,-52,-16,-3,0,-1,-2
11828354068,-2,-3,15,8,-7,-3,-5,-2
11828354068,-10,-9,-1,-16,-6,-4,-3,-4
11828360077,2,6,39,3,-2,-1,0,1
11828360077,-3,6,10,2,5,4,1,1
11828369085,3,-5,-23,4,2,1,1,1
11828369085,2,2,2,2,2,0,0,-2
11828382597,5,0,-4,-4,-4,-2,0,1
11828382597,-4,-5,1,-1,-2,-2,-2,-1
11828391536,-4,3,1,7,1,-1,1,0
11828391536,2,4,-22,-10,-7,-4,-3,2
11828397555,-5,-13,-1,-10,-1,-2,-1,1
11828397555,1,1,-7,8,0,-4,-3,-1
11828414049,0,2,10,-9,0,0,-1,-2
11828414049,-4,0,1,5,4,5,1,-3
11828420087,-7,-1,2,5,4,3,1,-2
11828420087,4,-2,5,5,-2,-1,-1,-1
11828429103,1,-2,-10,-16,-6,-6,-3,-2
11828429103,-7,-8,-1,-2,-8,-7,-4,-1
11828442728,-3,-3,3,8,-4,-3,-2,-3
11828442728,1,6,23,8,12,5,3,-1
11828451567,3,6,-14,-2,0,-1,-2,1
11828451567,4,7,-1,-8,-2,0,-1,0
11828457679,1,3,-22,-8,-1,-1,-1,2
11828457679,-3,-2,26,5,-7,-3,-3,-3
11828474082,-5,-1,0,4,0,0,-2,-3
11828474082,2,5,-3,-5,-3,0,0,-2
11828480231,-4,-9,-9,-2,-3,-4,-3,-2
11828480231,-2,-1,22,-1,-2,-1,-1,-2
11828495139,-2,-1,-13,-3,2,2,1,1
11828495139,-5,-7,6,5,2,-2,-2,-4
11828502551,3,8,-6,-2,-6,-3,-4,-2
11828502551,-3,-6,-11,-9,0,1,0,-1
11828518370,-6,-5,27,-1,6,0,-1,-2
11828518370,-4,-2,-8,6,-3,-1,-2,0
11828519027,2,-5,-6,-11,-4,0,-1,0
11828519027,2,7,21,14,9,0,-3,1
11828534101,0,-6,-55,-4,-5,-3,0,-3
11828534101,1,-8,-7,-10,-2,-3,0,1
11828540093,0,10,10,9,-5,-4,-2,-5
11828540093,-7,-8,-13,-16,-7,-4,-1,-1
11828555030,-4,-12,2,-6,2,2,-3,-1
11828555030,-2,-14,-6,-13,1,2,3,0
11828562671,0,-3,-5,0,-2,-2,-1,0
11828562671,0,11,4,-6,-2,0,0,-1
11828578205,0,4,11,12,-1,-3,0,-1
11828578205,-1,-7,-12,-9,-9,-4,-2,-2
11828579137,6,2,3,-11,-1,-1,0,0
11828579137,-5,-5,-7,16,1,1,0,-2
11828594097,-5,2,1,-2,4,5,4,-2
11828594097,2,11,8,7,2,-1,-1,-1
11828600121,3,2,-2,2,0,-2,-2,-1
11828600121,0,-5,13,-8,-6,-4,-2,1
11828615071,0,-10,-13,-9,-11,-5,-4,-2
11828615071,5,4,-6,6,1,-1,1,0
11828622662,-5,-1,-16,3,4,1,0,0
11828622662,-5,-2,10,-1,-5,-1,1,-1
11828638259,-5,-13,13,-8,0,0,1,-2
11828638259,-2,5,-1,1,5,2,1,-1
11828639081,-1,7,10,0,-4,-1,-4,-2
11828639081,4,6,7,9,2,-1,0,-1
11828654188,3,2,-3,7,-6,-4,-3,1
11828654188,-1,-1,1,-10,-2,0,0,0
11828660087,-1,-1,-25,-7,-1,1,0,-2
11828660087,-2,1,11,-9,-9,-2,-1,0
11828675104,3,1,14,15,16,2,2,-1
11828675104,6,1,-23,-7,-3,-2,0,-2
11828682746,-4,3,18,8,0,1,-1,-1
11828682746,-8,-9,-10,-8,-1,-4,-3,-4
11828698392,1,-2,-8,-7,-4,-3,-2,2
11828698392,-2,-6,2,1,-3,-2,-4,-2
11828699096,-5,-4,29,0,0,4,4,-1
11828699096,3,-6,-28,1,-2,-3,-3,-3
11828714153,3,12,0,-1,-5,-2,0,0
11828714153,-3,-10,-4,7,6,1,1,1
11828720264,-4,0,8,-16,-4,-2,-1,-2
11828720264,0,1,-3,6,-1,2,0,0
11828735041,-2,1,-5,-1,3,0,-2,-1
11828735041,-3,4,3,-9,-7,-2,-1,-1
11828742747,-4,-7,-13,9,2,-3,0,-2
11828742747,4,3,-11,-10,1,1,1,1
11828758344,4,1,12,3,-6,-2,-1,-2
11828758344,-1,4,10,0,-4,-3,-2,-1
11828759124,-2,-10,0,1,6,2,0,-1
11828759124,-1,-7,-23,-5,-8,-3,-2,-3
11828774178,-1,6,15,15,3,0,0,2
11828774178,-3,-3,-10,-5,3,0,-3,-1
11828780235,2,2,-1,0,-2,0,0,0
11828780235,4,2,17,-7,-1,-1,0,0
11828795148,-4,-9,-33,-1,-4,-2,-2,-2
11828795148,-1,-2,31,-1,-2,-4,-2,-3
11828802528,-4,-3,-36,-6,0,1,1,-1
11828802528,-5,2,20,2,2,-1,-1,-4
11828818382,3,0,-4,-4,-2,-2,0,-1
11828818382,5,2,5,10,3,1,1,2
11828819060,-3,-4,-9,-4,-4,-1,-2,-1
11828819060,-9,-5,-5,9,-2,-3,-1,-2
11828834110,8,4,-4,-18,-3,-1,0,-1
11828834110,-6,-9,-9,6,3,3,0,-1
11828840077,0,-2,-4,-1,-2,-2,0,-1
11828840077,3,8,8,-2,3,-2,-1,2
11828855205,-7,0,16,4,-4,-1,-2,-2
11828855205,0,-1,-2,3,0,2,1,-2
11828862604,2,4,15,2,4,-1,-3,-1
11828862604,-2,-3,-15,-8,-2,0,-1,-2
11828878412,-5,-7,-27,-8,-4,-2,-1,1
11828878412,-1,5,3,1,-3,-3,-2,-3
11828879054,1,-3,-1,9,-4,-4,-1,-3
11828879054,11,7,-7,-3,2,-1,1,2
11828894068,-6,0,-2,0,4,0,2,-2
11828894068,-9,-17,-2,4,-1,0,1,0
11828900219,4,0,8,-6,-7,-3,-2,0
11828900219,2,-1,-6,-3,2,0,-1,1
11828915148,2,7,19,3,0,2,0,-1
11828915148,-2,-7,-29,-9,-7,-5,-3,1
11828922630,-3,-3,-3,-1,-1,-3,-4,-2
11828922630,-3,6,-8,11,0,3,0,-1
11828938352,-7,-5,11,-6,11,3,1,-2
11828938352,1,1,-11,-7,4,-2,-2,-4
11828939087,3,-5,17,0,-11,-3,-2,1
11828939087,-2,-5,-11,-3,1,-1,-1,-1
11828954076,-1,-2,-15,-8,-10,-4,-4,0
11828954076,4,4,3,1,3,2,2,3
11828960100,-6,3,-6,4,3,0,0,-3
11828960100,-4,-6,-3,-6,-2,-1,2,1
11828975184,3,3,19,12,-5,-1,-2,-2
11828975184,2,-1,-13,-18,-6,0,0,-4
11828982653,1,-1,4,1,1,-2,-1,2
11828982653,-8,2,-1,-1,0,-2,-2,-3
11828998348,-5,-3,16,-9,-6,-1,0,-2
11828998348,1,0,14,18,0,-2,1,1
11828999149,-2,-2,-4,-8,2,0,0,-2
11828999149,1,-6,-6,0,-1,1,-1,-1
11829014078,5,9,-11,-5,-7,-2,-2,0
11829014078,-2,-4,-11,4,-1,1,0,0
11829020051,-3,-3,14,-1,-2,4,2,1
11829020051,2,0,5,1,-1,-1,0,1
11829035198,-2,-3,-32,-5,-3,0,-2,-1
11829035198,-2,6,19,-3,-3,0,0,-2
11829042686,1,-5,-14,2,6,0,-3,-1
11829042686,-3,-6,-15,-10,-5,-5,-3,-3
11829058348,-2,-4,17,18,9,1,-1,-3
11829058348,-2,3,-6,-6,-4,-1,-1,-3
11829059102,-1,0,9,-4,-7,-4,-1,2
11829059102,2,2,6,3,4,5,0,-1
11829074049,1,-10,-7,1,5,-1,0,2
11829074049,-1,0,-11,-4,-1,-1,1,0
11829080195,5,11,20,14,1,-3,1,-3
11829080195,-8,-9,-13,-25,-7,-3,-2,-1
11829094992,-4,-2,8,-4,1,4,2,1
11829094992,-3,-3,2,22,7,1,-3,-1
11829102640,-3,1,-14,-5,-3,-3,-1,-1
11829102640,4,10,10,-1,-4,-2,-2,-1
11829117626,2,-5,0,-9,-3,-2,0,-2
11829117626,0,2,7,-6,2,2,-1,0
11829125112,-5,-6,-32,-11,-4,2,1,-2
11829125112,2,6,41,20,4,1,2,0
11829134189,-4,-8,-24,-3,-1,-2,-2,-2
11829134189,2,5,3,-7,-2,-2,-2,0
11829140160,0,1,5,1,0,-2,-1,0
11829140160,-3,-9,-17,-9,-5,-2,-1,-2
11829155193,-2,-1,5,0,-2,-3,0,-2
11829155193,2,-2,-3,2,-3,-3,-1,-1
11829162554,2,-3,7,0,9,5,2,3
11829162554,-2,-1,-7,5,0,-2,-4,-2
11829177687,-7,1,14,10,-4,0,-3,-3
11829177687,4,2,-4,-5,-7,0,0,-1
11829185712,1,3,3,1,2,-2,-1,0
11829185712,3,-3,-14,3,0,-1,0,-2
11829192639,-3,-3,9,-1,-4,-7,-1,-1
11829192639,-8,-4,-5,3,-1,-1,0,1
11829200157,-5,-5,-4,-5,0,2,2,-1
11829200157,10,-1,-4,-2,1,1,1,0
11829215010,-4,4,-12,-11,-8,-2,0,-2
11829215010,-3,-1,5,6,9,1,2,0
11829222604,3,-1,-8,8,-2,-3,-4,-1
11829222604,-5,0,10,-5,-3,-3,-5,-3
11829237515,1,-5,4,4,-3,-2,-1,1
11829237515,6,5,-3,-18,-3,-1,-2,2
11829245883,-6,2,-3,-11,-9,-2,-1,-2
11829245883,-1,-8,-21,-3,3,5,2,-1
11829252727,4,12,34,16,1,-1,0,1
11829252727,-4,-4,3,-1,1,1,-2,-3
11829260159,-5,-3,-13,-14,-5,-3,-1,-2
11829260159,0,5,2,4,2,-3,-2,-2
11829275019,1,-3,-17,-9,1,-2,1,0
11829275019,-2,0,8,1,-2,-2,0,-3
11829282559,-3,-6,3,-4,-6,-4,-1,-2
11829282559,-4,-3,-8,-3,-1,-3,-2,0
11829297726,-1,-4,-2,4,7,4,-1,-1
11829297726,-1,6,12,3,-5,-4,-2,-2
11829305840,0,-11,-2,4,-3,-2,-1,-2
11829305840,-4,-3,-3,-2,-2,-2,0,1
11829320851,-4,-5,-2,-4,2,0,-1,-2
11829320851,1,-2,-7,-1,-6,-2,-1,1
11829321536,-1,1,6,-4,2,-1,-3,-2
11829321536,0,-2,-10,-3,1,1,0,1
11829335081,3,-1,-22,-3,-4,-1,-1,-2
11829335081,1,3,17,0,-14,-2,-2,-1
11829342676,3,2,4,11,16,3,0,1
11829342676,-3,-3,3,-4,-6,-4,-5,-3
11829357646,0,3,6,0,1,0,-1,-1
11829357646,-10,-6,-10,-7,-2,-2,-1,-3
11829365831,6,4,-1,-3,-3,-1,0,0
11829365831,1,0,-21,-5,-2,-1,0,1
11829380718,-3,-8,9,8,1,1,-2,-2
11829380718,0,1,-2,2,-1,-4,-4,-1
11829381633,-7,-8,-18,-4,-1,2,1,1
11829381633,0,2,25,-1,-2,0,-1,-1
11829395174,2,-1,-7,7,-3,-3,-3,1
11829395174,0,-6,-14,-1,7,2,1,1
11829402617,0,11,18,4,-1,-3,-5,-3
11829402617,-2,0,-12,-16,-10,-3,-1,-1
11829417640,-4,-7,-10,-2,4,2,3,1
11829417640,-1,-1,1,-7,0,-1,-3,-2
11829433280,-3,0,-13,6,-2,-1,0,-2
11829433280,2,-1,-2,0,-1,-3,-1,-1
11829440691,8,11,3,-2,-1,0,-1,1
11829440691,-1,-3,7,5,0,-2,-1,-3
11829441627,0,2,2,-2,-1,2,2,0
11829441627,-8,-7,2,8,-4,-1,0,-2
11829454993,-1,-3,-8,-14,-1,-1,-3,1
11829454993,-2,-2,-5,-3,4,2,-1,0
11829462635,-2,-3,5,-3,-5,-6,-3,-3
11829462635,1,1,8,-3,-4,-1,0,1
11829477607,-2,-3,-12,1,-2,-3,-2,-2
11829477607,-1,-3,-5,0,-1,-2,1,1
11829485858,-3,1,11,6,0,0,-4,0
11829485858,2,0,4,-10,4,2,3,2
11829500742,0,1,-19,-2,-1,-2,0,0
11829500742,0,-1,3,-10,0,0,-2,0
11829501624,1,5,13,9,1,0,-1,-1
11829501624,2,-6,-10,1,-2,-1,-4,-2
11829515182,-2,-2,17,-5,-6,0,0,-1
11829515182,2,6,-3,-1,-2,-1,0,-1
11829522673,-7,-14,8,7,6,2,-2,-1
11829522673,0,3,8,6,0,0,-1,-2
11829537619,0,-3,-22,-23,-2,-5,-3,-1
11829537619,-4,6,-3,12,11,4,1,-2
11829545842,-6,-24,-30,-6,-8,-3,-1,-3
11829545842,3,0,31,17,6,0,-2,-1
11829560824,-2,2,3,3,-5,-2,0,-1
11829560824,7,1,-2,-7,-7,-1,1,-1
11829561537,0,6,4,1,1,-1,1,-2
11829561537,-4,-4,-14,6,4,0,2,0
11829575199,1,1,4,6,-2,-2,-2,-1
11829575199,-1,-1,-3,0,-4,-3,-2,1
11829582615,-4,1,-15,-18,-3,-3,0,-1
11829582615,0,-2,-3,-4,-4,-2,-1,-2
11829597697,-1,4,9,0,1,1,0,-1
11829597697,-5,-8,-4,7,0,1,-1,-1
11829605875,3,1,6,-3,-4,1,0,0
11829605875,0,3,-13,-4,2,2,0,-1
11829620767,-3,-2,5,5,6,1,0,-3
11829620767,-1,0,2,-1,-4,-3,-3,-3
11829621673,2,-16,-8,-2,-4,-2,0,1
11829621673,-1,-5,3,-6,-1,0,-1,0
11829635045,-3,1,-3,4,-2,0,0,-1
11829635045,-1,-1,10,9,3,1,1,1
11829642628,-2,5,1,-7,-5,-4,-4,-2
11829642628,-1,-1,-5,3,-2,-3,1,0
11829657552,-5,-8,-9,-11,-2,0,1,-2
11829657552,-1,7,-2,-2,-1,-3,-3,-1
11829665785,7,11,-1,-1,-3,-2,0,2
11829665785,1,-1,-9,-8,-3,-2,-4,-3
11829680799,1,1,-13,-8,-3,1,1,0
11829680799,-9,-7,14,0,-2,-2,0,-5
11829681675,-4,-1,2,5,-4,0,-1,-1
11829681675,-3,-2,4,8,8,2,-1,-1
11829695053,3,6,-7,-6,2,1,-2,-1
11829695053,1,-12,-14,-3,0,-2,0,1
11829702628,0,6,2,1,-5,-6,-4,0
11829702628,0,-1,-2,0,-4,0,-1,-2
11829717670,-7,1,18,16,1,2,0,-1
11829717670,4,-3,-20,-17,4,4,3,4
11829725878,3,3,12,4,0,-1,-1,1
11829725878,-3,-2,9,-2,-1,-2,-3,-2
11829740845,-3,-7,-9,-18,-6,-5,-3,-2
11829740845,-3,1,7,2,-5,-3,-4,-3
11829741512,-2,-3,-4,0,3,2,1,-1
11829741512,0,1,-23,-3,-4,-1,0,0
11829755172,-2,-1,8,3,-3,-2,-1,-2
11829755172,2,-2,-8,-8,0,1,0,-2
11829762641,4,4,17,9,1,-2,-1,-3
11829762641,-4,0,12,7,-1,-2,-2,2
11829777708,0,-3,-22,-10,1,-2,0,-2
11829777708,-3,-1,19,4,-4,-5,-4,-2
11829785897,0,6,-7,-6,-2,0,-1,-3
11829785897,-2,-3,-4,-8,-2,-1,0,-3
11829800747,-4,-8,9,5,-4,-1,-3,-3
11829800747,6,3,-31,-3,6,3,-2,1
11829801683,-3,1,-4,4,6,3,1,0
11829801683,-7,-6,17,11,-2,0,1,-1
11829814992,3,1,3,-14,-3,-3,0,0
11829814992,-3,2,6,2,-5,-1,0,1
11829822678,-3,-8,-7,-2,1,-1,-2,-1
11829822678,5,1,-4,4,0,1,0,2
11829837637,-1,1,9,-2,-1,0,1,-1
11829837637,-2,-7,-16,-8,1,1,-1,-1
11829845812,-3,1,6,6,1,0,-1,-2
11829845812,-8,-1,23,7,0,-2,-3,-3
11829862266,5,0,-3,-1,-2,-2,-1,0
11829862266,5,-4,-11,1,-1,-5,-1,1
11829862962,-1,-1,-12,-6,-2,0,0,-2
11829862962,-1,7,-3,2,-4,-1,-1,-2
11829875073,-5,-16,1,4,3,1,0,-1
11829875073,0,6,22,-1,0,1,1,-2
11829882639,2,3,-1,-10,-3,0,0,2
11829882639,-6,-18,-10,2,-3,-3,-2,-1
11829897663,-2,1,-10,-3,-2,-4,-2,0
11829897663,-1,-2,0,-3,-6,-2,0,-1
11829905691,0,-2,2,16,5,0,-1,0
11829905691,4,4,-3,-22,-5,0,-1,2
11829920811,0,2,-21,4,6,0,0,1
11829920811,-4,-2,6,5,3,0,0,-3
11829921582,-6,2,5,-2,-5,-3,-2,-2
11829921582,4,-3,-12,-2,2,0,-3,0
11829935084,4,4,10,1,-7,-1,-2,0
11829935084,-11,-4,-30,-11,-7,-3,-2,-3
11829942688,-2,-13,0,-2,1,-1,-1,-3
11829942688,-4,-2,19,-1,3,3,1,-3
11829957553,3,-1,2,10,-3,-1,1,0
11829957553,-1,12,15,-4,0,0,-2,1
11829965809,5,2,-23,-12,-5,-2,0,1
11829965809,1,6,-3,-1,1,0,0,2
11829980099,-6,-5,6,0,-1,-2,-3,-2
11829980099,-1,-4,-17,-3,-2,1,0,1
11829988202,0,-3,6,-4,-1,-2,-1,2
11829988202,-2,-1,-5,3,-3,-5,-3,0
11829994962,1,3,1,-7,0,2,0,-1
11829994962,-2,-5,18,3,-2,-2,-3,-1
11830002508,0,-2,-13,1,2,2,0,-3
11830002508,1,2,-2,5,-2,-2,-2,-1
11830017554,-3,1,-10,-14,-9,-3,-1,-1
11830017554,-1,-6,-13,21,8,-1,-1,-2
11830025755,-2,0,23,-3,-2,1,-1,-1
11830025755,-2,-2,0,-1,-3,0,-1,-2
11830040021,-5,-5,-4,4,3,-2,-1,-2
11830040021,3,6,5,-8,-6,0,0,-1
11830048331,1,-1,-13,-3,-4,-4,-1,-1
11830048331,-1,-3,0,5,-1,0,0,0
11830055041,2,4,3,-12,0,1,-2,-1
11830055041,-10,-21,0,15,5,1,-2,-2
11830062482,-3,-5,-2,0,1,1,-2,-2
11830062482,1,-3,-11,-18,-1,0,0,0
11830077631,5,2,7,13,2,-2,-1,2
11830077631,1,7,1,-8,-10,-3,-2,-2
11830085569,-6,0,-4,4,3,-1,-2,-3
11830085569,-2,-4,-11,-3,2,-2,-1,-1
11830100162,0,2,12,3,-1,1,1,-1
11830100162,0,-2,-11,-9,-3,-2,-2,-1
11830108267,1,0,10,-3,-2,1,2,1
11830108267,1,6,-25,-5,-3,-2,0,0
11830115043,-5,-4,28,5,-3,-1,-1,-3
11830115043,0,-3,7,-3,-2,-1,-1,0
11830122544,-1,-2,-11,-3,4,1,-2,-1
11830122544,-1,-1,5,4,1,-3,0,1
11830137496,-3,0,-9,-5,-3,-2,-1,0
11830137496,6,11,2,4,8,5,0,1
11830145828,2,2,9,2,-7,0,0,0
11830145828,-7,-3,-25,-5,0,-1,-2,-4
11830160144,-8,-11,-21,0,3,-1,0,-2
11830160144,-1,1,29,-3,-4,-2,0,-2
11830168247,0,2,2,2,0,-1,0,-1
11830168247,-1,0,3,-2,-5,-2,-2,-1
11830174961,2,-3,-14,-10,0,-1,-1,1
11830174961,-6,-1,-9,1,-2,-2,-1,-4
11830182524,-2,-8,5,-6,-5,-2,-1,-2
11830182524,3,1,4,8,4,0,-1,0
11830197480,-2,-2,-2,-1,-4,0,-2,0
11830197480,0,-8,-3,-9,2,2,1,1
11830205842,-1,6,-10,2,-1,-1,-2,-1
11830205842,-2,-11,19,10,-7,-4,0,-3
11830219952,1,1,-7,-7,-1,2,0,-2
11830219952,-1,-1,-3,0,-1,-3,-2,-1
11830228040,-4,1,-10,-8,-2,-2,-1,0
11830228040,1,4,1,-2,1,-2,-1,0
11830243232,1,0,3,5,-1,-2,-2,-1
11830243232,1,-1,1,-4,-2,-2,0,1
11830244130,-2,-7,-4,3,4,-2,1,-1
11830244130,-3,2,6,2,-4,-3,-3,0
11830257570,0,1,5,-8,3,0,-2,0
11830257570,0,-2,-6,1,-3,-2,-1,0
11830265874,-1,-3,-12,-5,3,0,0,-1
11830265874,0,5,7,0,0,1,1,-2
11830280055,1,1,-12,2,-6,-1,-1,-2
11830280055,-2,-10,6,-2,1,2,1,-2
11830288281,-1,7,12,4,-6,-3,-3,-1
11830288281,-1,-2,0,-10,1,2,1,0
11830303296,0,3,-10,3,1,-2,1,-1
11830303296,-1,-4,16,-1,-5,-4,-4,-1
11830303987,0,-3,-16,-4,-3,-1,-1,-2
11830303987,-2,2,-10,-8,-1,-2,-1,-1
11830317618,-1,-8,-19,-5,-3,-2,-1,0
11830317618,0,7,11,5,-1,-2,-1,-1
11830325876,0,-2,2,1,-7,-2,-1,0
11830325876,1,6,8,-1,19,6,1,-2
11830340130,0,0,14,4,-3,-4,-2,-2
11830340130,-1,-4,-27,-15,-6,-3,-2,-2
11830348269,-2,-2,0,3,-2,-3,-2,-2
11830348269,-2,-3,-9,-7,-9,-6,-2,-1
11830363121,-5,0,9,4,3,0,2,0
11830363121,1,-4,0,10,0,-1,-1,2
11830363908,1,-3,-5,-7,3,0,-2,0
11830363908,1,2,10,9,-5,-1,-2,1
11830377598,0,3,-3,-14,2,0,-1,-1
11830377598,-3,-6,-39,3,-2,0,-1,-1
11830385811,-3,8,31,-3,3,5,2,-3
11830385811,-2,-3,-4,3,-7,-4,-3,-1
11830400082,1,4,11,7,4,-1,-3,0
11830400082,-1,-2,-1,-8,0,-3,0,-1
11830408370,-2,-5,-12,4,-2,-5,-2,-1
11830408370,0,1,5,-4,-2,-2,0,-2
11830423244,-1,-4,-7,-5,-8,-4,-2,0
11830423244,-1,1,-11,1,-2,-1,-1,-1
11830424058,-1,-3,6,-7,3,2,0,-1
11830424058,-2,0,11,6,2,5,1,0
11830437504,-2,1,21,1,-5,-4,-4,1
11830437504,-1,1,8,-2,-3,-3,-2,0
11830445723,-3,-6,-22,-5,-4,0,1,0
11830445723,-2,-9,-23,-6,0,1,-2,-2
11830460017,-1,-6,-6,9,7,3,1,-2
11830460017,-2,4,-35,-8,-2,-1,-1,-2
11830468282,0,2,56,8,-6,-4,-1,0
11830468282,0,-2,-7,-10,2,2,-1,1
11830483410,0,-2,0,-1,-2,-5,-4,-1
11830483410,-1,4,6,-7,-4,-3,-1,0
11830484099,-2,-4,-22,4,-2,-1,-2,-1
11830484099,-1,-3,0,2,0,-1,-1,-1
11830497558,-1,0,2,-4,-1,1,0,0
11830497558,1,-1,24,2,1,0,0,-1
11830505785,0,1,-24,-7,-6,-4,-2,1
11830505785,1,2,5,0,-1,-3,-1,-2
11830520133,-3,1,2,10,-2,4,2,-2
11830520133,-2,-4,18,-1,10,3,1,-1
11830528215,0,-9,-4,-8,0,0,-1,-1
11830528215,1,11,-2,1,-2,-4,0,0
11830543614,-1,-1,-14,-8,-8,-3,-1,0
11830543614,0,-2,7,7,5,-1,-1,1
11830544412,0,-2,-5,2,-3,-5,-4,0
11830544412,-1,-7,-2,-8,-1,0,-1,-1
11830557649,-1,4,-5,5,11,5,3,-2
11830557649,-5,-2,9,10,-7,0,-1,-2
11830565788,2,5,-5,5,-4,-4,0,-1
11830565788,1,-3,-2,-4,-1,-2,-2,1
11830580152,-1,3,1,-10,-7,-6,-2,-2
11830580152,-1,-4,-16,-14,2,1,1,-1
11830588323,-3,3,-1,-6,-2,-4,-2,-2
11830588323,-4,-11,3,7,-5,-2,0,-1
11830603182,1,3,7,6,0,4,0,-1
11830603182,1,9,4,0,-2,-2,-2,0
11830603948,-1,-6,-11,-3,-3,1,1,1
11830603948,-3,8,4,0,-2,-2,-1,-1
11830617613,-1,-6,-17,0,-1,-2,-1,-1
11830617613,-1,-3,13,0,-1,1,0,0
11830625756,1,-2,2,-1,2,1,0,-3
11830625756,-3,-9,-15,-16,-5,0,0,-2
11830640111,-2,0,21,24,3,-3,-4,-2
11830640111,4,3,-1,15,1,2,0,1
11830648137,-1,-2,-2,-4,-3,-1,-1,0
11830648137,0,-1,0,-16,3,1,-1,0
11830663276,-3,-8,-14,-6,-6,-4,-1,-1
11830663276,-1,-4,-11,0,4,-1,0,-2
11830664058,-1,0,12,16,7,3,0,1
11830664058,-2,-4,-1,3,-7,-3,0,-3
11830677542,-2,-9,-4,-12,-5,-1,-1,-1
11830677542,0,0,5,11,-1,-1,0,-2
11830685775,-2,-4,-8,-7,3,0,-1,-3
11830685775,-2,3,7,3,-2,-2,-3,0
11830700042,-4,-4,2,-3,-2,-3,0,2
11830700042,2,-1,0,-5,3,1,-1,0
11830708126,5,10,-7,-1,-6,-3,-2,-2
11830708126,-5,0,2,-4,0,-1,-3,-2
11830723141,-1,-2,9,-2,-4,-2,1,-1
11830723141,-4,-2,-13,-10,2,-1,1,-1
11830723934,-4,-2,4,0,-1,-1,0,-2
11830723934,1,-1,-2,16,0,-1,1,-1
11830737585,0,3,-3,-5,4,0,-2,-1
11830737585,-3,-10,4,-5,0,1,-1,-2
11830745750,1,-1,-1,-2,-1,-3,-1,0
11830745750,-2,-3,-9,-4,-3,-1,-3,-1
11830760123,0,5,-6,-2,-1,-1,-1,-3
11830760123,3,2,5,2,1,-3,-2,2
11830768372,-4,1,4,-6,-2,-1,-1,-1
11830768372,-2,-5,-1,2,-1,0,0,-1
11830783335,2,3,2,12,0,0,2,2
11830783335,-2,0,0,-11,-7,-1,-1,-1
11830783929,-4,-9,-31,2,2,-2,0,-2
11830783929,-5,-1,7,-17,-5,-4,-2,-3
11830797657,0,-6,-5,-11,2,-2,0,-1
11830797657,-1,4,0,1,-6,-5,-4,-2
11830806554,-1,1,5,0,1,0,-2,0
11830806554,0,-10,1,4,-2,0,1,-1
11830820009,-4,1,9,4,7,0,0,-1
11830820009,-4,-7,-22,-14,-10,-4,-1,-1
11830829062,2,0,14,1,1,-1,0,-1
11830829062,2,2,-3,8,2,-1,-3,-2
11830842537,1,-1,9,0,-11,-2,0,-1
11830842537,-4,4,-3,-6,-2,-2,0,-3
11830851565,-4,-9,-7,8,3,0,-1,-2
11830851565,1,-1,-6,-10,5,2,2,1
11830857598,1,3,3,8,-6,-3,-3,-2
11830857598,0,-1,-13,-4,-4,-4,-2,0
11830866603,0,1,27,-5,-10,-2,-1,-1
11830866603,2,5,-1,12,4,-2,2,0
11830880090,-2,-3,-3,-10,-1,0,-2,-1
11830880090,-3,-5,-2,-1,-3,-2,-1,-1
11830888943,-1,1,6,-1,5,0,-3,-2
11830888943,0,-1,-16,-3,-1,1,0,1
11830902477,0,2,-3,0,2,1,-1,0
11830902477,-1,-14,-6,-4,-3,-3,-2,-2
11830911517,-2,0,14,4,-1,-1,1,-1
11830911517,-2,1,-3,-2,-7,-2,-4,-4
11830917604,-3,-7,-10,-10,4,-1,-4,-1
11830917604,2,3,2,7,-3,1,-1,1
11830926482,-2,-1,-20,-8,4,3,2,0
11830926482,-1,-2,10,-3,-1,-1,1,-1
11830940119,4,3,-14,-18,-6,-1,0,-2
11830940119,0,3,45,20,0,-3,-1,-1
11830949001,-2,-9,-32,-5,-1,-2,-1,-1
11830949001,3,0,-4,3,-3,-2,-1,2
11830962690,1,14,-3,-5,1,1,0,-3
11830962690,-4,-10,-6,-3,-4,-1,1,-3
11830971553,-3,1,2,1,1,-3,-2,-1
11830971553,-1,0,5,-1,0,-2,-1,-1
11830977497,2,-2,10,5,0,0,1,0
11830977497,0,0,-18,-2,1,0,-1,-1
11830986534,-1,-1,8,2,-7,-3,-2,1
11830986534,0,-8,-5,-11,-1,-3,-2,1
11831000177,-4,-8,2,24,8,1,0,0
11831000177,-1,0,-8,-17,-1,3,2,-2
11831008998,0,-4,-16,15,10,3,-2,1
11831008998,-2,4,22,2,4,1,0,-2
11831022640,-1,-3,2,-6,-9,-3,0,0
11831022640,-2,5,0,-3,-3,-3,-1,-2
11831031468,3,-4,3,-2,-7,-1,-2,1
11831031468,-1,3,-9,3,-2,1,2,-1
11831037559,-6,-5,-7,-9,-5,-2,-1,-5
11831037559,-1,-1,10,8,5,0,0,-1
11831046505,7,5,-1,-8,0,-1,-1,-2
11831046505,-3,-4,-7,4,0,0,-2,-2
11831060023,-2,-4,5,-1,-4,-3,-4,0
11831060023,0,4,-9,-8,-3,-2,-3,-1
11831068872,-5,-1,-4,-5,-6,-5,-1,-1
11831068872,0,1,-12,12,3,0,-1,-2
11831082550,-2,-2,12,-2,1,0,-1,-1
11831082550,1,-1,-13,3,0,-1,0,-1
11831091530,-3,3,26,-1,-1,0,1,0
11831091530,1,0,-5,-9,-1,2,0,0
11831097586,-1,1,-1,-1,-3,1,1,0
11831097586,-1,-4,3,11,1,-2,-2,-2
11831106593,-5,-7,-9,-12,-14,-6,-3,-4
11831106593,1,8,4,-1,2,-1,-3,1
11831120037,1,-12,-4,5,9,2,-1,-2
11831120037,2,5,16,4,0,-2,-1,1
11831129035,-2,-2,-27,-8,0,1,-1,-4
11831129035,-4,-3,6,-8,-6,-2,0,-3
11831142657,-1,2,-18,5,-2,-4,-2,1
11831142657,-1,-1,4,-2,7,0,0,0
11831151532,-3,1,27,6,-7,-3,0,0
11831151532,-2,-2,4,2,4,0,-2,-2
11831166344,4,0,-5,4,-1,-1,-2,-2
11831166344,-1,-2,-10,-8,-9,-4,-4,-1
11831167970,-1,1,-8,-5,3,2,0,0
11831167970,-5,-5,-8,-1,-2,0,0,-1
11831180004,-1,-4,5,-2,-3,1,-1,0
11831180004,1,5,-5,11,2,-1,-3,0
11831188983,2,-2,-5,-9,-1,-2,-2,1
11831188983,0,-3,9,-6,-3,-1,0,-1
11831202466,-2,0,-9,-1,-1,-2,2,0
11831202466,-2,-16,1,-10,-5,-3,-2,-4
11831211514,-2,-1,1,7,-6,-2,-1,-3
11831211514,-1,-3,-8,-1,0,-1,0,-2
11831226417,2,13,14,4,-3,-5,-2,-1
11831226417,-2,-4,-6,-15,0,5,1,0
11831227876,0,-1,2,-2,0,0,-2,-1
11831227876,-1,-2,1,2,1,1,-2,1
11831240121,-2,-2,1,5,-2,-2,-1,-1
11831240121,-1,2,-12,-8,-6,-4,-1,0
11831256449,-3,-4,-10,-6,-7,-1,0,-1
11831256449,-2,1,15,13,10,2,-1,0
11831263123,-1,-2,12,-6,-2,-2,-3,-2
11831263123,-1,1,-2,-2,-2,-1,0,-1
11831270087,-2,6,20,6,-4,-2,0,1
11831270087,-1,-8,-44,3,-3,0,-1,-1
11831286352,6,8,1,-3,10,2,1,1
11831286352,0,-5,1,-5,-2,0,-1,0
11831287934,-1,-1,-3,-5,-4,-4,-3,0
11831287934,-2,1,9,-1,-3,-2,-2,-2
11831300008,-5,-4,-24,-2,-1,3,1,-1
11831300008,1,1,26,3,-2,1,0,-2
11831308964,-4,-8,-12,-4,3,0,-1,-1
11831308964,-2,-4,-2,-3,-5,-4,-2,-2
11831323269,-2,-1,-4,-6,-7,-3,-3,0
11831323269,-1,5,-3,4,2,-1,-1,-1
11831330057,-1,-6,-5,0,-1,1,-1,-1
11831330057,0,-1,6,-11,-1,1,-1,-1
11831346466,-1,-2,-8,-6,-12,-5,-1,-1
11831346466,-3,-2,-16,12,8,-2,0,-2
11831347958,-1,4,15,0,6,0,0,-1
11831347958,0,3,2,-3,-2,0,0,-1
11831360136,-2,-5,-2,-6,-2,-1,-3,-1
11831360136,0,-2,-2,8,-3,1,-2,1
11831369007,0,12,-5,-10,-1,0,1,0
11831369007,-1,-13,1,12,-3,-4,-1,-2
11831383231,-2,0,5,7,4,1,1,-1
11831383231,2,2,0,-7,-1,-2,0,1
11831390132,1,1,-3,-5,-2,-3,-3,-2
11831390132,-1,-2,-6,0,-6,-3,-1,-1
11831406341,-5,-7,6,-7,-3,0,0,-2
11831406341,-2,1,-3,-2,3,6,4,-2
11831407957,0,-2,-5,4,3,1,2,0
11831407957,2,3,1,6,-1,-2,-1,0
11831420020,2,-1,4,-1,-1,0,-1,-1
11831420020,-1,5,-6,6,1,-1,-2,-1
11831428982,-1,-7,6,-15,-3,0,0,1
11831428982,-3,-2,-3,-3,0,-1,1,-1
11831443265,-3,-3,-1,4,4,-1,1,0
11831443265,-3,1,-4,-11,-5,-4,-4,-1
11831449972,1,-8,-9,7,0,-1,0,-1
11831449972,0,7,11,2,-1,-2,-2,-1
11831466436,-3,-12,-12,-9,0,0,-2,-3
11831466436,-3,-6,9,-1,-8,-4,0,-2
11831468063,-2,0,-6,13,8,0,-5,0
11831468063,1,3,-13,-9,5,1,1,1
11831479977,-1,-2,14,2,-4,-1,-2,-2
11831479977,-1,1,-2,4,-6,-3,1,-2
11831489054,-2,-4,-10,-2,3,3,0,-2
11831489054,-2,5,6,-17,-1,-1,-1,0
11831503237,2,4,-1,3,1,1,0,-1
11831503237,2,2,2,1,0,0,-1,1
11831510035,1,0,-4,-5,-6,-1,0,-1
11831510035,0,-1,0,9,-2,-1,1,0
11831526287,-5,6,-7,-4,4,-1,1,0
11831526287,-4,-10,3,0,3,0,0,-1
11831528048,1,-2,-7,-7,-2,-1,0,-2
11831528048,-3,3,11,1,-5,-3,-4,-1
11831540076,0,1,-7,8,-1,-3,-1,-1
11831540076,2,0,-5,-12,-5,1,0,1
11831549034,-1,1,-1,8,8,1,1,-1
11831549034,0,-2,-1,-8,-4,-1,0,-2
11831563231,-1,-1,6,13,-2,-3,-2,-2
11831563231,-1,-1,-1,-3,-4,-1,-4,-4
11831570045,-2,-1,0,-15,-3,-1,-1,-1
11831570045,-3,-7,-1,-1,-4,0,-2,-2
11831586448,-2,-6,-11,-11,-6,-2,1,-2
11831586448,0,-4,-3,3,6,2,0,0
11831587975,1,10,-6,2,-4,-3,-2,1
11831587975,-1,-21,-10,3,-1,-2,-2,-1
11831600107,0,5,30,-14,-5,-2,-1,-2
11831600107,0,-4,-6,7,-2,-1,-2,-1
11831608959,-4,-3,7,2,-3,0,-1,-3
11831608959,1,1,-12,-4,4,0,0,1
11831623256,-1,-1,-10,-6,-3,-2,-2,1
11831623256,0,-4,-2,3,3,-1,-1,-1
11831629907,0,2,6,6,-3,-3,-1,-1
11831629907,-3,-2,-9,-8,-2,-2,-2,-1
11831646388,-3,-2,9,-4,0,1,-3,-3
11831646388,1,4,6,-3,-11,-4,-2,2
11831647978,4,-6,11,17,16,0,0,4
11831647978,3,2,-20,-14,-2,-3,0,0
11831660083,-1,-1,2,-3,3,2,2,1
11831660083,-5,-5,-21,5,3,0,-1,-1
11831668897,-6,-5,3,-1,-8,-2,-3,-4
11831668897,0,3,8,2,-6,-1,-2,-2
11831683263,2,-3,-7,6,2,-5,-3,-1
11831683263,-2,-4,-3,-15,-4,-1,-2,0
11831689985,1,9,5,11,-3,-2,-2,-2
11831689985,-3,5,-4,-8,0,2,3,0
11831706414,-4,-4,8,4,-5,-2,-3,-1
11831706414,-1,2,5,3,-6,-5,-2,-1
11831707918,1,3,-5,-24,-6,-1,-2,-2
11831707918,-4,2,-1,5,-2,0,-1,-1
11831719968,-1,-7,-9,0,-1,-3,-2,-1
11831719968,0,5,4,0,6,1,0,-1
11831728982,-1,0,6,4,0,-1,-1,1
11831728982,-1,-1,3,-2,-7,0,0,0
11831743255,-5,-1,-7,-7,2,-1,0,-3
11831743255,-1,-2,3,5,2,0,-1,0
11831749930,-2,-9,-7,-2,-10,-4,-2,-1
11831749930,1,-3,9,-2,1,-1,0,2
11831766367,1,3,-4,0,5,2,1,1
11831766367,-2,9,-1,-2,-1,0,0,-1
11831768061,-4,-2,-2,-4,0,-1,-1,-2
11831768061,3,1,6,3,-3,-4,-2,-3
11831780030,1,0,-1,0,-8,-4,-3,0
11831780030,-3,-4,2,7,-4,-4,-2,-2
11831788885,-1,-6,-42,-8,10,1,0,-1
11831788885,-3,2,36,7,6,-2,-1,-2
11831803177,-1,2,-6,1,-1,-1,-2,-2
11831803177,3,0,5,-2,-2,-1,0,0
11831810033,-1,-2,18,8,-2,0,-2,0
11831810033,-2,-4,-29,1,2,0,-1,0
11831826325,-2,-5,-6,-8,-3,1,-2,-1
11831826325,-3,-7,-1,-7,-4,-2,-2,-1
11831827907,-1,-3,-2,-3,0,0,-2,-1
11831827907,2,0,-2,2,-3,0,-1,-1
11831840075,2,-2,1,2,0,-3,0,0
11831840075,0,2,4,-7,-2,-2,1,0
11831849054,-2,1,7,12,6,3,3,0
11831849054,-1,-2,3,9,5,1,-2,-2
11831871271,2,-1,-13,-10,-4,2,0,1
11831871271,1,7,1,4,-5,-3,-4,-1
11831872978,-2,-10,-3,-19,-2,-1,0,0
11831872978,-1,4,4,24,17,3,-1,1
11831886328,-3,-5,-10,5,-1,0,-1,-1
11831886328,-3,-12,-14,-12,2,-2,1,0
11831887911,-2,2,1,4,-9,-4,0,-1
11831887911,-1,-4,7,-10,-5,-3,0,-2
11831899995,-1,-6,-14,-5,-3,1,-3,-1
11831899995,1,-2,2,1,1,-1,-1,-1
11831908932,2,7,0,-4,-4,-1,-2,-1
11831908932,0,-1,-3,5,-4,-2,-1,-2
11831923302,1,7,21,10,-2,-3,0,0
11831923302,-3,-7,-7,-6,-5,-1,-1,-2
11831930112,1,5,1,10,9,1,-1,-1
11831930112,-2,0,-8,0,-5,1,-3,-1
11831945779,1,0,6,-9,-2,-1,-3,-1
11831945779,1,1,-3,-3,1,3,1,1
11831952553,-3,-6,-10,-9,-5,-3,-1,-1
11831952553,-3,4,-1,7,-10,-5,-3,-3
11831959985,-1,-5,13,2,-3,-1,-2,-2
11831959985,2,2,-21,-8,8,0,0,1
11831968960,-1,-2,-5,-5,-8,-4,-2,-3
11831968960,1,0,13,6,4,1,0,0
11831983205,-2,-5,-3,-14,0,1,-1,0
11831983205,-6,-7,10,19,4,0,-1,-3
11831990014,1,6,3,-6,0,-1,0,0
11831990014,-1,-3,-9,5,-2,-2,0,1
11832005621,1,3,-9,5,0,-3,-1,1
11832005621,-4,-15,1,-9,-2,0,-1,-1
11832012424,-2,-7,-4,-5,-4,-2,-3,0
11832012424,0,9,10,-11,-3,0,0,-2
11832019907,-1,-11,-20,5,1,-2,0,-2
11832019907,1,7,-5,-1,1,-1,-2,-1
11832028969,-4,-6,4,0,-4,-2,0,-1
11832028969,-5,-3,2,-16,-7,0,-1,0
11832043134,-1,0,-1,2,3,2,1,-1
11832043134,-5,-4,-3,-7,-1,0,-1,-2
11832049906,3,0,-1,8,4,-1,0,1
11832049906,5,0,1,-9,-4,-4,-2,-2
11832065647,-4,0,-5,4,-2,-3,0,0
11832065647,1,2,10,10,-2,0,-1,1
11832072404,-2,2,12,2,2,0,-1,-2
11832072404,-2,-3,-23,-9,-2,-2,-2,-2
11832088767,-2,-1,10,6,-5,1,-1,-1
11832088767,0,-1,-22,-9,7,0,0,-2
11832090378,-3,0,7,-7,-5,-3,-3,-1
11832090378,0,-11,-1,1,-2,0,-2,0
11832103105,2,1,2,-8,-2,-1,0,-2
11832103105,0,8,1,6,-1,0,1,0
11832109974,-2,-6,1,1,0,-1,0,-1
11832109974,-3,-2,3,2,-4,-2,-1,0
11832125649,-2,-1,-18,-2,6,1,-1,0
11832125649,3,6,21,8,0,-1,0,-1
11832132430,-2,-8,-10,0,3,-2,-2,-2
11832132430,-2,4,0,-5,-1,-1,-1,-1
11832148800,0,-4,-10,-5,-6,-1,-1,0
11832148800,-3,1,12,1,-5,-3,-3,-2
11832150423,-2,-2,-13,-7,0,0,-1,-1
11832150423,-2,-2,-9,-3,-3,-1,0,1
11832163114,-2,-2,-1,-9,1,1,1,-1
11832163114,-1,0,7,-2,0,-3,0,-2
11832169915,5,4,6,-3,-4,-1,1,-2
11832169915,-3,-4,-14,14,6,0,-2,-3
11832185607,-3,5,-6,2,-2,0,-3,0
11832185607,1,-4,35,0,-13,-4,-2,0
11832192417,-4,3,-18,5,10,0,-3,-2
11832192417,2,1,-11,-13,0,-1,0,0
11832208739,-4,2,12,9,2,2,0,-3
11832208739,-2,2,-8,3,-2,-2,1,0
11832210359,-1,0,9,-1,-4,1,0,1
11832210359,2,-4,-11,-7,-2,-2,0,-2
11832223074,-2,-5,-16,8,1,-3,-1,-1
11832223074,-5,-5,5,-1,-2,-1,-1,-1
11832229951,0,-1,6,-4,-7,-4,-3,-1
11832229951,-4,-2,1,-5,0,-2,-1,-1
11832245665,0,0,4,-7,-5,-1,0,1
11832245665,2,-1,-14,12,5,4,2,1
11832252531,-2,-6,15,-15,-4,-1,0,-2
11832252531,-3,-2,-8,8,-1,-1,-1,-4
11832268922,1,6,-4,10,3,-3,-4,-2
11832268922,-2,-2,10,-11,-1,-1,-1,-3
11832270453,2,2,-8,1,4,2,-1,2
11832270453,1,-3,9,-4,0,-1,0,0
11832283127,0,0,2,-3,-3,2,2,0
11832283127,3,4,-20,-1,-1,-1,1,-1
11832290005,-4,-5,4,0,-4,-1,0,-2
11832290005,-1,-4,-12,-9,1,-1,-2,-1
11832305741,-1,8,32,8,0,-3,-3,0
11832305741,-1,-1,-7,-10,-3,-4,-5,-4
11832312482,0,2,-18,-1,-3,0,2,-1
11832312482,-4,-8,4,7,0,-1,-2,-2
11832328806,-2,-5,-5,-3,1,0,0,-2
11832328806,-5,-2,-6,-2,-2,0,-1,1
11832330367,0,-4,4,2,1,-2,-1,-2
11832330367,0,-1,-3,-2,-3,0,1,-1
11832343221,1,-5,-6,-4,1,0,1,0
11832343221,-2,1,3,-9,-6,-1,-2,-2
11832350008,-3,2,-11,11,4,0,-2,-1
11832350008,-2,1,14,2,-6,-2,-2,0
11832365748,0,-3,9,1,-7,-3,-3,-3
11832365748,-4,-2,-13,-6,2,1,1,-2
11832372595,4,4,-4,-12,-3,0,-2,0
11832372595,2,1,1,13,2,-4,-1,-3
11832388918,-2,-4,-9,-8,-4,-1,0,0
11832388918,-4,-2,-2,-6,0,0,-1,-1
11832390415,0,3,1,13,3,0,-2,1
11832390415,-2,1,6,-17,-4,0,1,-1
11832403170,-3,2,-10,12,4,1,-2,-1
11832403170,0,-7,-4,9,-3,0,2,0
11832409970,0,0,5,-17,-6,-3,0,-2
11832409970,0,-3,-3,7,0,0,-3,2
11832425727,4,9,9,-5,1,-2,-1,0
11832425727,0,3,-1,2,5,3,-2,-1
11832432528,-6,-4,-8,13,5,1,0,-3
11832432528,-5,-4,5,-12,0,1,0,-3
11832448865,1,-3,-8,-13,-10,-4,-3,-1
11832448865,-3,0,-6,9,1,-2,-1,0
11832450529,4,7,10,-2,-8,-4,-1,3
11832450529,-2,1,-7,6,-3,-1,0,-1
11832463211,-2,-6,0,-2,4,2,1,-1
11832463211,5,5,10,-11,-6,-4,3,2
11832469985,-2,-5,-7,-6,-1,-1,-1,0
11832469985,1,1,1,12,0,0,0,-1
