timestamp,emg1,emg2,emg3,emg4,emg5,emg6,emg7,emg8
7145824517,3,76,2,1,4,-1,9,-5
7145824517,-4,-76,-4,-6,-3,-4,-33,-1
7145825239,-4,-36,0,-1,-1,1,5,1
7145825239,6,77,-2,-6,-7,-7,-15,-8
7145826159,-1,-61,-2,-4,-5,-3,-16,4
7145826159,3,-57,1,2,-2,-23,0,-2
7145826856,4,79,-2,-1,0,21,1,-2
7145826856,-8,-34,2,2,2,-7,2,-1
7145831617,-11,-68,-4,-3,-2,-1,-23,-6
7145831617,-8,68,4,6,4,5,16,-9
7145832582,6,21,-1,-5,-6,-12,-16,13
7145832582,17,-43,-1,1,7,6,14,6
7145841017,-8,-2,-1,-1,-5,-2,3,-4
7145841017,-1,44,-5,-7,-4,2,6,2
7145853215,-32,-67,9,14,15,8,2,-12
7145853215,-1,-33,2,-3,-11,1,-3,-1
7145861018,3,37,6,-2,-1,1,4,2
7145861018,26,-7,23,12,4,4,7,7
7145868258,-16,-30,-39,-9,-11,-12,-7,-7
7145868258,-17,18,-16,-12,2,1,-5,-2
7145886120,-1,40,13,-1,10,0,7,-3
7145886120,1,20,12,15,-2,4,-1,4
7145889637,17,27,-13,-26,2,1,7,3
7145889637,-7,9,57,14,-22,-5,1,-2
7145937731,16,-28,-2,4,-6,-3,0,3
7145937731,-49,93,-6,-11,-12,-9,-9,-16
7145938709,38,-48,6,8,-2,-1,-2,2
7145938709,-23,-11,0,-9,6,4,3,-3
7145939390,-31,49,-5,5,2,5,4,-8
7145939390,0,68,-7,-9,-4,1,13,-2
7145942662,6,63,22,-11,-22,-8,-27,2
7145942662,-9,-41,-22,7,-3,-9,1,-2
7145949386,22,-19,1,-6,7,7,3,3
7145949386,-25,-78,4,11,10,7,-13,-2
7145957586,-3,27,-6,-14,-11,-1,-1,-9
7145957586,36,54,21,19,6,7,15,19
7145964413,-1,120,0,-24,-21,-14,-20,-4
7145964413,7,72,0,36,11,-5,36,9
7145979965,-9,54,-3,-15,-15,0,-1,0
7145979965,4,35,0,10,18,-10,-10,-3
7145986910,-7,-21,11,-5,-21,7,-6,-2
7145986910,9,-110,-4,-21,9,-1,-6,-1
7145994252,-14,-118,-1,0,16,7,8,-2
7145994252,-4,-39,13,15,-7,-5,6,-3
7146009413,-3,-98,-22,-30,-4,-7,-1,-2
7146009413,22,-65,6,8,-19,-17,-10,4
7146017591,-25,-51,5,59,4,1,1,-10
7146017591,-7,-15,-4,-18,-13,-3,-13,-5
7146024360,-7,-54,-1,-8,12,4,-2,-5
7146024360,6,-32,-10,-29,14,-8,-3,0
7146040059,0,8,-12,0,7,2,6,1
7146040059,2,-7,1,16,-19,26,4,1
7146046910,0,-20,-6,17,21,8,10,0
7146046910,7,5,4,9,12,-12,-2,-2
7146054327,-6,2,-6,-13,-10,1,4,0
7146054327,-6,-17,-17,-15,-4,-8,-21,-4
7146069392,3,13,2,-1,-18,-14,11,-2
7146069392,9,20,-5,-5,-7,-10,-11,-6
7146077466,-14,-11,1,-9,7,1,-7,3
7146077466,3,2,-4,-18,-2,4,-6,-8
7146084259,3,18,1,5,5,11,12,7
7146084259,2,-2,14,13,8,15,6,4
7146100028,4,8,-12,-5,2,-9,5,-4
7146100028,-3,6,-8,-7,-3,-12,17,4
7146106859,12,22,11,12,13,-1,11,3
7146106859,-4,-2,1,-1,-8,3,-18,0
7146114244,-1,10,4,-7,-7,-5,2,0
7146114244,0,4,7,1,6,-1,-17,-3
7146129341,-3,-3,-2,9,3,-11,9,0
7146129341,2,2,-5,-6,-7,21,-13,2
7146137566,0,6,-4,-2,1,-9,-8,3
7146137566,4,1,0,1,6,7,14,4
7146144287,0,-4,0,2,-6,-5,-22,-3
7146144287,-1,-2,-4,-4,-8,-7,-21,-3
7146160067,3,9,6,-1,6,14,15,4
7146160067,-5,-4,1,-1,-3,-9,-6,1
7146166858,-5,-8,-1,1,-1,-8,-20,-1
7146166858,9,-1,1,-3,-8,7,19,3
7146174423,4,5,0,0,6,-1,3,0
7146174423,-4,1,-4,-6,-3,-4,-5,-4
7146189386,-1,1,2,-2,-2,4,13,-4
7146189386,1,1,0,-1,0,-10,3,-4
7146197577,-13,-2,-2,-2,-1,10,-38,7
7146197577,1,-7,2,-2,1,0,9,-2
7146204379,-6,-3,2,4,-1,-4,-2,-1
7146204379,1,1,6,-19,-12,4,4,-1
7146219988,-4,-20,-16,20,12,-6,-4,-8
7146219988,7,2,5,10,-2,-1,-2,0
7146226873,1,19,-3,-1,1,3,0,3
7146226873,-7,15,-14,-4,0,-2,1,0
7146234392,9,-9,-5,-18,-7,-1,7,-1
7146234392,-3,27,-2,-10,-2,-1,-1,0
7146249386,-2,-45,4,14,-1,-3,-4,-3
7146249386,3,17,5,11,-5,-1,-2,-1
7146257450,-3,56,6,-19,3,-2,8,-1
7146257450,-16,-28,-15,9,10,9,-2,-4
7146264420,2,-34,5,-8,-4,1,-3,-1
7146264420,-1,12,13,-5,0,1,4,0
7146280060,4,32,15,13,-8,-5,2,0
7146280060,-15,-75,-33,-16,-9,-4,-6,-6
7146286805,9,45,12,-6,-2,4,0,-2
7146286805,-6,-5,-14,15,-4,-6,-4,0
7146294304,2,23,-12,-18,0,-7,1,1
7146294304,-1,-2,15,4,1,4,0,0
7146309232,-3,-10,-1,8,2,-1,2,6
7146309232,12,-26,-5,-3,-8,1,-1,-3
7146317555,-20,2,10,-1,-5,-2,-4,-5
7146317555,-2,27,-12,-4,2,-6,-4,-5
7146324358,-9,23,-1,0,-3,-1,-3,-4
7146324358,-5,-26,-7,-4,0,6,21,1
7146340046,1,5,-16,2,-1,-7,-18,2
7146340046,-2,10,23,9,-5,2,-5,-6
7146346848,-3,-31,-20,-13,6,4,0,-2
7146346848,6,8,-4,-12,-4,-5,2,7
7146354310,3,-36,3,12,-29,-12,3,-2
7146354310,2,-28,-5,-9,15,22,5,-1
7146369327,5,30,11,-8,3,2,-1,2
7146369327,-19,-18,-2,14,8,5,5,-3
7146377557,-3,-30,-4,-5,8,-7,-2,0
7146377557,16,29,15,9,-14,-14,-2,4
7146384373,-9,5,-14,-22,-22,-1,-4,-6
7146384373,-1,-1,-3,-5,-2,-5,-10,-2
7146408182,10,-18,6,14,16,8,7,2
7146408182,0,10,-3,-13,-18,-17,-6,-2
7146409717,-9,-12,11,4,34,15,4,-2
7146409717,0,-14,-7,-15,-26,-10,-5,-4
7146414437,4,13,-5,7,5,5,-3,-6
7146414437,-4,8,1,-13,-3,3,5,2
7146429349,-5,6,-1,11,-31,-27,-7,-2
7146429349,-5,-1,-2,14,32,24,1,-7
7146437483,1,3,-6,-14,9,8,9,1
7146437483,4,3,1,1,-20,-7,3,4
7146444327,8,-3,-5,-3,-8,-2,-4,2
7146444327,-6,8,-3,-7,-4,-7,-5,-2
7146460734,-2,-9,4,3,6,-4,0,-3
7146460734,2,5,2,7,15,8,1,2
7146466859,-4,9,-1,4,3,0,1,-1
7146466859,1,8,4,-5,-5,-5,-15,-10
7146483259,7,15,-2,-5,-2,0,13,8
7146483259,0,2,3,0,-7,-4,-3,-4
7146489370,-10,-7,3,-1,3,2,-14,-1
7146489370,8,18,0,-4,16,15,1,6
7146498237,-3,-8,-4,-12,-17,-2,-8,-7
7146498237,-2,6,1,7,9,-21,-9,-4
7146504336,-1,-7,-3,5,9,5,18,0
7146504336,5,3,-2,4,-7,-6,-9,0
7146520723,-18,-8,0,0,-4,5,1,-2
7146520723,2,-6,-7,-7,0,-18,12,-3
7146526887,4,1,-2,-2,2,21,-4,2
7146526887,-7,-5,5,9,1,-4,21,-1
7146543203,-2,-17,0,-1,0,1,-23,-3
7146543203,-9,-16,-4,-8,4,6,15,-1
7146549363,5,-5,-5,3,-2,-15,-3,-5
7146549363,7,-6,0,-1,-3,-3,6,3
7146558213,1,5,-8,-8,-5,-18,-10,3
7146558213,-3,12,2,0,1,25,9,4
7146564350,-7,-2,-2,-1,-5,-3,2,-2
7146564350,1,-9,-1,-1,2,-7,-4,-1
7146580686,-10,-10,5,0,-1,2,8,-7
7146580686,0,-3,2,2,2,0,-2,0
7146586872,-4,-9,-3,-2,-2,-1,2,-1
7146586872,4,-6,-1,-5,-5,-19,1,-4
7146603265,16,-6,-1,3,4,5,15,8
7146603265,-9,-5,3,0,-1,-1,-12,0
7146609311,8,-3,-6,-17,-9,-12,-1,-3
7146609311,-10,19,10,28,4,-2,-2,3
7146618217,6,0,-5,-16,-2,11,4,-2
7146618217,11,25,1,-2,1,3,-10,-4
7146624447,-39,-27,-13,-12,-6,-10,-1,-4
7146624447,-1,13,9,-13,-10,-6,-13,-4
7146640736,20,11,19,11,6,4,2,7
7146640736,5,59,19,20,1,-6,-1,1
7146646870,18,-13,-24,-23,-2,1,-5,5
7146646870,-35,-63,-13,-32,-25,0,-6,-10
7146663236,-14,48,-27,19,18,-3,-2,-13
7146663236,-21,-87,-38,-27,-9,-7,-10,-8
7146669357,13,30,47,32,-2,2,0,1
7146669357,-25,-33,-4,19,16,14,5,2
7146678253,29,15,-11,-12,0,-5,2,2
7146678253,0,41,-13,-16,-18,-10,0,0
7146684267,-3,16,9,23,-11,2,-22,0
7146684267,4,55,7,13,15,-3,-1,3
7146700776,-12,12,-9,-33,-10,-5,1,-4
7146700776,14,53,25,14,19,10,-3,1
7146706911,-15,-58,-26,-8,1,2,9,-1
7146706911,21,72,15,-8,-7,-2,-7,-3
7146723244,-11,-71,-11,-9,-9,-10,8,1
7146723244,-8,8,6,17,-6,0,-17,-2
7146729314,11,40,-2,-16,-5,-9,0,-1
7146729314,3,-2,-6,4,-3,-7,-12,0
7146738222,-3,45,9,-2,-20,-4,-17,-11
7146738222,1,-4,6,8,17,0,12,-1
7146744328,10,22,9,23,35,37,4,9
7146744328,1,-26,-7,-8,3,2,-3,4
7146760761,14,-12,5,28,-1,-13,-6,-5
7146760761,-6,-26,-3,-6,-48,-2,-2,-4
7146766858,1,-19,-7,-31,-10,-24,-14,-5
7146766858,8,-4,-1,7,11,21,27,9
7146783240,-16,-38,11,22,12,1,-5,-6
7146783240,3,-40,7,36,-1,-6,-8,-2
7146789279,-1,1,-22,-46,5,-3,8,-3
7146789279,2,-32,-19,3,-25,-7,-10,-4
7146798245,-3,0,-6,-28,-16,-18,-4,-5
7146798245,2,1,4,-5,1,-1,2,1
7146804362,-4,-1,14,47,17,3,5,0
7146804362,-4,-13,0,-30,-5,-2,-3,-4
7146820733,8,13,4,20,3,11,-1,2
7146820733,-2,7,-2,-33,7,-4,4,0
7146826836,5,-2,-19,-4,-11,-10,2,-1
7146826836,3,6,-7,-3,1,-2,-11,-7
7146843214,-5,-6,3,30,8,-4,11,8
7146843214,-1,-16,-4,-18,2,17,6,1
7146849331,-8,-13,-16,-26,-3,1,-1,-5
7146849331,1,9,3,-1,-10,-5,-11,-4
7146858223,-6,-6,-11,-15,4,7,2,0
7146858223,-5,-9,-5,2,10,-2,-2,0
7146871771,-2,0,-1,35,9,-1,-7,-5
7146871771,-4,3,-1,9,-1,-3,6,2
7146880695,-2,-12,-2,-18,-1,0,-1,1
7146880695,-12,-10,-3,-13,-6,-11,-11,-8
7146886826,8,17,24,33,-8,-2,-3,-3
7146886826,3,-5,-27,-32,8,3,6,1
7146903223,-6,9,2,-8,1,10,1,0
7146903223,1,-6,-4,19,7,-4,2,0
7146909306,-3,14,6,-12,-13,-23,-3,-3
7146909306,-6,-10,6,5,-1,24,-28,3
7146924343,1,-7,2,8,6,6,5,3
7146924343,5,-4,-17,-18,-3,-8,11,3
7146931817,-2,3,6,1,-3,-4,-5,-3
7146931817,0,-12,1,5,1,-20,-22,-12
7146947462,-4,-3,3,2,0,15,51,7
7146947462,-6,-2,-2,-2,1,8,-20,3
7146948212,2,-12,0,-4,-2,-7,6,-17
7146948212,-6,-1,5,6,-2,-13,2,11
7146963230,0,-4,2,-5,-4,5,-20,-3
7146963230,20,8,-6,-2,-1,-4,-4,-1
7146969388,2,-7,-3,-3,-4,4,17,2
7146969388,3,-2,5,-1,0,2,6,-2
7146984364,-35,-8,1,0,0,-7,-17,-7
7146984364,6,-5,-6,-3,1,1,-1,-2
7146991869,-15,3,2,0,-2,2,-10,1
7146991869,22,20,9,10,4,5,16,3
7147007490,5,-25,1,-3,-6,-8,-8,6
7147007490,-21,-27,-16,-14,-9,-9,2,-13
7147008192,29,38,14,0,3,9,3,11
7147008192,-5,28,-9,-5,10,1,3,-3
7147023214,-5,-34,-2,21,0,-5,3,-3
7147023214,5,46,14,7,7,1,-6,-1
7147029264,-28,-60,-39,-23,-11,-8,-14,-10
7147029264,-9,40,10,-15,-15,-5,2,2
7147044271,6,85,3,1,-7,-7,-11,-3
7147044271,-17,-44,-21,9,13,1,3,1
7147051779,18,4,22,34,3,4,-2,1
7147051779,14,38,-3,-10,2,-1,7,-6
7147067468,17,51,-17,-28,-5,-3,-5,10
7147067468,-23,34,5,-18,-12,-4,-6,-10
7147068263,-12,-35,-13,0,8,4,5,1
7147068263,-7,-65,5,31,9,8,4,-1
7147083250,4,-3,19,13,5,-4,-12,-4
7147083250,20,63,19,12,-6,-3,-10,2
7147089287,2,-72,-20,1,-10,-6,-13,-1
7147089287,-21,-13,-17,-45,-5,-2,5,0
7147104320,4,1,7,7,2,3,4,1
7147104320,-4,-72,-5,5,5,1,1,-1
7147111859,-17,67,14,-8,-8,-1,8,0
7147111859,1,-2,1,12,-12,-7,-15,-5
7147127500,-1,-17,-12,-17,0,3,4,-1
7147127500,9,17,19,39,22,8,6,0
7147128213,-1,-4,7,8,9,-1,-7,0
7147128213,2,-4,-1,5,-42,6,3,-1
7147143171,-9,-34,10,12,21,-4,-3,1
7147143171,12,-20,-16,-40,-15,2,11,7
7147149337,9,8,-1,-13,4,0,2,4
7147149337,-4,-8,3,13,21,-9,-5,-5
7147164318,-1,-16,1,-4,-21,-2,-3,-6
7147164318,-1,-9,-6,-10,-22,1,3,1
7147171758,-5,27,1,0,-1,-1,1,-1
7147171758,2,-11,-2,-11,7,6,7,2
7147187487,-8,-11,7,8,-5,-5,-5,-8
7147187487,3,17,2,6,16,-8,4,2
7147188177,7,-1,1,-3,-17,11,-2,4
7147188177,-20,-36,6,2,-3,1,-1,-11
7147203196,-1,2,-14,-20,20,8,5,0
7147203196,-10,-5,-11,-24,-4,-4,-3,-6
7147209332,-4,-6,-3,-28,-7,-5,-4,-4
7147209332,12,14,3,11,-1,-11,-4,1
7147224308,7,5,6,17,10,5,7,5
7147224308,-1,-2,16,15,4,2,0,-4
7147231810,-7,-19,-4,19,20,15,0,1
7147231810,-3,6,-6,-33,-7,0,8,-1
7147247480,4,7,-1,5,-14,-6,-15,0
7147247480,0,-2,-4,-9,0,7,1,-3
7147248199,0,10,0,-2,-7,-6,-2,-2
7147248199,7,7,1,8,6,-1,0,3
7147263222,-7,-14,-8,-9,0,-2,5,-5
7147263222,0,2,-5,7,-4,-5,-1,-6
7147269336,3,13,-2,-9,1,0,2,10
7147269336,-3,-7,-5,0,0,-29,9,-2
7147284257,-3,1,-5,-3,-5,16,1,-5
7147284257,2,-2,2,2,3,12,21,7
7147291837,2,1,2,4,-3,-9,-16,-1
7147291837,4,-7,-1,10,5,-14,27,-1
7147307441,-2,-9,-4,-2,-5,0,-76,-6
7147307441,-3,-11,-4,-1,1,8,36,6
7147308211,-7,10,7,1,2,0,-4,-4
7147308211,11,-3,3,7,3,4,1,6
7147323223,-18,-9,-4,-7,-6,-5,-18,-5
7147323223,-3,-24,-8,-3,-4,-8,-21,-5
7147329352,-1,4,-4,-5,-7,-10,2,-1
7147329352,1,-7,-1,0,2,11,-13,-2
7147344312,3,7,0,0,-7,-10,18,2
7147344312,5,14,4,6,2,-4,-17,5
7147351817,-1,-1,-1,-2,-3,-1,6,-7
7147351817,-2,8,0,-1,2,2,-12,-2
7147367511,5,-1,3,2,-2,-6,13,-1
7147367511,-20,-7,-15,-16,-5,-4,-7,0
7147368241,15,7,4,10,2,2,1,2
7147368241,-20,-10,-17,-6,-4,1,-10,-5
7147381721,30,60,46,32,7,1,10,7
7147381721,-12,0,-37,-19,-5,-13,-10,-4
7147389162,9,-4,23,-6,-11,4,2,1
7147389162,-11,28,-27,10,23,18,3,5
7147404149,2,80,39,27,-1,-5,17,3
7147404149,-11,-74,-16,-31,-13,-9,-17,-15
7147411619,-8,77,-46,-25,-6,-9,-2,-4
7147411619,16,-52,20,12,1,7,5,12
7147427353,-4,-28,6,3,9,-2,-1,-7
7147427353,2,37,-16,-29,-8,8,6,7
7147428218,-20,-29,-4,15,0,-4,-8,-14
7147428218,-1,12,5,-12,-14,-13,-9,-3
7147441820,0,1,2,-3,-2,-2,6,0
7147441820,8,-68,16,29,17,7,3,3
7147449262,13,53,16,-11,-1,5,26,7
7147449262,6,15,12,17,7,2,-23,-1
7147464293,-6,-69,-29,-25,-6,-7,2,-6
7147464293,6,51,11,5,-9,-8,-6,1
7147471846,-11,-16,9,29,11,4,-2,1
7147471846,-4,-4,-10,-28,-9,3,7,0
7147487519,17,34,-29,-16,1,-4,-1,2
7147487519,-1,12,0,-5,-4,3,-3,3
7147488190,24,38,11,7,3,-2,-7,0
7147488190,-16,40,9,-26,-7,-16,-6,-3
7147501721,-33,-53,-20,-3,-10,17,3,-10
7147501721,12,28,16,34,23,-3,5,1
7147509187,-9,-38,-4,-4,-16,1,-7,-3
7147509187,15,-23,0,-1,16,-5,8,2
7147524294,2,-2,-7,7,-50,-16,-4,-1
7147524294,-5,-16,12,-14,39,9,5,1
7147531834,0,-32,-11,2,-4,-3,-7,-4
7147531834,-4,-25,-8,4,0,10,10,-5
7147547393,-6,-10,7,-29,-10,-7,-2,-1
7147547393,13,15,-4,43,8,-3,-7,-2
7147548143,-4,-29,-14,-25,-5,-15,-5,-4
7147548143,-11,-5,10,7,1,12,-4,-6
7147561856,-4,-2,-20,-13,14,1,3,1
7147561856,1,-5,5,15,-2,-2,-2,-3
7147569276,-3,-9,-19,-31,-8,-7,-2,-3
7147569276,-13,5,0,31,-1,-12,-9,-6
7147584336,1,-5,1,-4,3,14,13,1
7147584336,-4,1,10,-7,11,8,13,1
7147591770,5,-2,-12,-2,-12,-17,-1,5
7147591770,13,14,-11,-16,-25,5,6,-2
7147607439,6,-4,-2,10,31,12,-19,1
7147607439,-5,22,4,3,-15,-20,-9,-6
7147608144,-14,-14,-7,4,6,34,22,3
7147608144,2,-17,-9,-5,5,0,-4,-1
7147621845,-2,2,-3,3,2,-3,-2,-2
7147621845,1,7,10,-2,-21,-9,4,0
7147629345,14,20,9,-6,2,-3,0,7
7147629345,-6,6,5,-1,-7,-12,-4,-4
7147644321,3,-7,-10,15,5,8,12,1
7147644321,-2,1,9,7,-9,-4,-22,0
7147651794,-3,2,2,12,10,-13,-1,-4
7147651794,-2,1,3,-8,-2,19,1,-1
7147667473,-11,2,4,-7,-5,-24,-10,-4
7147667473,2,4,-5,-6,-6,30,3,0
7147668166,-4,-11,9,5,3,-7,-14,-4
7147668166,8,3,3,2,0,-7,-19,7
7147689952,-14,-16,-6,-5,-3,-13,7,-1
7147689952,-2,-18,-12,-9,-9,-22,-10,-6
7147690672,-5,-15,0,0,3,36,5,-3
7147690672,-3,-1,0,4,3,-2,15,4
7147704245,12,-5,-4,-8,-3,-2,-21,-2
7147704245,-5,-3,1,-2,-6,-8,-10,2
7147711832,-7,-7,2,-2,-4,-12,1,-10
7147711832,3,2,-1,3,-1,-5,4,-3
7147727490,3,2,0,2,4,10,13,8
7147727490,4,0,0,-7,-6,6,6,-1
7147728202,-6,-5,2,8,0,-1,-12,2
7147728202,6,-4,-9,-5,-2,-16,-6,-5
7147741785,3,2,-1,-1,-2,2,0,-2
7147741785,-14,-1,1,-8,-9,1,4,1
7147749328,-11,0,-3,3,4,9,-2,-2
7147749328,4,-14,-15,-27,-13,-17,-7,1
7147764283,15,21,6,24,25,15,10,2
7147764283,-10,-6,8,11,3,7,0,-1
7147771796,-6,-25,-16,-26,-16,-18,-4,-6
7147771796,-12,26,15,12,-4,1,-2,-2
7147795653,10,14,-20,-14,-8,-9,-4,0
7147795653,-9,-57,4,5,2,9,7,-3
7147796340,0,-5,-9,-8,5,-7,-5,-3
7147796340,-7,20,5,3,1,5,2,-2
7147801671,28,-16,11,-15,-18,1,1,5
7147801671,11,16,-4,18,12,-7,0,4
7147809257,-26,-30,-2,-5,4,0,-2,-5
7147809257,7,-22,10,7,-2,2,1,6
7147824194,-30,-10,-13,-25,-7,-9,-4,-11
7147824194,21,48,18,14,9,13,7,1
7147831773,2,28,0,1,5,1,-4,5
7147831773,2,-1,-1,4,-2,2,0,-2
7147846695,-20,-1,-15,-29,-20,-12,-7,-5
7147846695,10,0,-7,1,-16,-11,-10,-5
7147854875,-4,44,0,9,9,5,6,3
7147854875,9,6,-2,3,-5,-7,12,10
7147861648,-14,21,17,33,23,-9,-10,-10
7147861648,8,5,-11,-27,-12,31,1,-3
7147869152,-1,-14,1,-2,-6,-9,-6,0
7147869152,-12,-5,-2,-8,2,4,2,-7
7147884157,14,-2,0,11,-9,-45,-22,-1
7147884157,-16,-15,-9,-10,17,78,-1,-8
7147891792,3,-1,4,2,-11,-12,2,3
7147891792,-12,-35,11,-10,-20,-2,-12,-8
7147906753,8,-8,-32,-27,-8,-13,10,0
7147906753,-11,-7,-3,13,10,-18,-15,-1
7147914833,3,-12,4,20,10,16,22,-4
7147914833,9,7,-3,-7,7,9,-4,3
7147929966,-16,-25,0,-3,-6,9,-3,-4
7147929966,11,24,-4,-18,-6,-43,2,-1
7147930759,-3,-11,-3,-7,-29,-2,-9,-5
7147930759,5,21,4,-9,33,11,7,3
7147944311,-1,0,14,19,-6,11,10,-2
7147944311,9,1,-8,3,-1,-9,5,10
7147951800,-2,-4,-2,31,32,5,-7,-5
7147951800,-13,-15,-17,-44,-11,-5,-8,-10
7147966781,-2,-1,9,16,-3,2,0,2
7147966781,-10,10,7,-13,-23,-15,-8,-5
7147975047,13,17,-6,-33,9,5,0,5
7147975047,-9,-15,-3,9,-11,0,5,-5
7147989834,4,-1,5,-4,3,14,2,3
7147989834,-5,-4,-2,16,-13,-26,2,-3
7147990735,17,30,-11,-14,4,5,4,4
7147990735,-4,-8,-7,-1,-5,1,-5,0
7148004253,-6,-5,4,19,0,7,1,-1
7148004253,-2,-12,-9,-13,-5,-10,8,-1
7148011813,-3,-6,2,9,-11,-9,-5,-4
7148011813,-9,-9,-13,-2,1,-11,-7,-5
7148026784,1,6,-5,-16,-8,10,8,-1
7148026784,0,-7,1,12,4,-11,-14,-1
7148035059,4,-6,2,-1,11,16,5,2
7148035059,-5,-12,4,19,-4,-13,-6,-4
7148049985,-12,-13,-5,-8,0,-12,-2,-2
7148049985,3,-10,1,0,10,35,7,1
7148050642,5,-5,10,-1,-15,-17,6,-5
7148050642,13,15,-8,2,-2,-6,-48,2
7148072457,-8,14,-6,3,6,9,5,-1
7148072457,-3,-7,2,-6,-5,-11,-5,3
7148073121,-7,-16,5,-2,-8,0,27,0
7148073121,3,8,1,11,3,4,-7,-5
7148086781,-3,-13,-1,-5,9,-3,-1,-3
7148086781,-3,-3,1,-2,-4,-7,-8,1
7148094977,-1,-20,2,1,-2,0,-10,0
7148094977,8,-8,-2,6,3,-12,12,-2
7148109905,5,-15,0,0,0,32,32,4
7148109905,-9,-14,-5,-5,0,-6,4,-6
7148110625,2,3,-2,-3,-7,-3,-17,-1
7148110625,-2,5,1,1,3,-11,-7,0
7148124227,-14,2,8,0,7,7,-6,-1
7148124227,10,13,-1,9,1,0,-2,-5
7148131758,12,10,-1,9,5,3,-7,3
7148131758,-23,11,3,16,-2,-2,9,-8
7148146682,10,-9,1,-4,0,-13,-21,1
7148146682,-24,36,25,5,-1,2,18,-3
7148155056,-2,-28,-56,-38,-4,-5,-13,-1
7148155056,15,1,-2,-10,-7,4,5,2
7148169928,-15,25,1,2,0,2,-11,-1
7148169928,23,-36,-2,-4,-11,-1,6,4
7148170638,13,76,44,39,5,0,-2,1
7148170638,12,24,-23,-19,25,19,20,6
7148184304,-44,-15,-11,-10,-12,-8,-10,-18
7148184304,9,52,-28,-35,-11,-12,-10,6
7148191780,-26,-62,-35,0,-7,-9,-1,-7
7148191780,19,17,38,12,-12,-6,-3,4
7148206827,41,23,-9,-25,-2,-5,0,7
7148206827,-1,-43,41,16,-8,-1,9,1
7148214961,-48,-35,-55,-15,21,10,-11,-13
7148214961,-46,6,3,16,-15,-1,-8,-12
7148229851,5,-11,4,3,-3,-11,-10,-7
7148229851,6,-21,-29,3,3,0,3,5
7148230704,52,70,43,9,-13,-5,6,7
7148230704,-34,-55,-17,-13,1,-1,1,0
7148244239,4,47,13,30,2,8,12,4
7148244239,-5,27,-21,-15,-6,-10,-17,-7
7148251832,11,32,28,7,-13,-25,-2,0
7148251832,-20,14,-7,0,22,48,13,2
7148266824,39,13,9,15,0,-12,-11,8
7148266824,-3,5,-2,1,23,3,12,3
7148274978,-11,-40,-7,-24,-20,-4,2,-4
7148274978,17,-4,1,22,2,-5,1,-1
7148289942,-10,-23,-10,-55,-48,-8,-3,-2
7148289942,-11,-27,-7,8,30,-9,-16,-8
7148290700,-1,-16,8,22,19,15,1,3
7148290700,23,-19,8,26,4,1,15,7
7148304317,-5,-16,-16,-31,19,18,12,-2
7148304317,-8,-10,5,19,-18,-12,-10,-7
7148311811,-4,-15,4,-9,-18,-4,-1,-2
7148311811,-1,-21,-11,-19,2,-12,-7,-7
7148326766,-8,-21,-7,4,-2,-12,-6,-2
7148326766,2,2,9,-8,-5,3,5,0
7148334945,-8,-6,0,9,1,-1,-4,1
7148334945,-1,-13,-4,-9,-8,-8,-3,0
7148350380,-1,-5,14,39,14,8,15,4
7148350380,-14,-10,-13,-18,2,2,-9,-9
7148351071,0,10,7,-14,7,5,0,0
7148351071,8,19,11,16,0,-4,-1,2
7148364188,-1,0,-9,-12,4,1,-3,0
7148364188,6,17,6,10,-19,-3,0,2
7148371767,-8,-14,-8,-28,4,4,0,-4
7148371767,0,-6,-6,2,0,-5,0,0
7148386706,-5,3,12,-6,-10,-3,0,0
7148386706,9,0,-16,8,13,-10,3,1
7148394985,-6,-5,5,8,-5,16,-7,-2
7148394985,7,6,-4,-34,-2,-3,-5,-1
7148409861,-1,-4,-3,18,8,2,-2,-2
7148409861,-6,3,3,-15,-5,-11,-6,-5
7148410686,-2,7,8,4,-3,-2,-4,-3
7148410686,-3,-1,-9,4,-2,-3,-7,-3
7148424246,-1,-3,6,9,6,6,2,-1
7148424246,-2,-8,2,-5,-5,-8,3,2
7148431783,-3,6,-14,-6,-6,-1,2,-12
7148431783,12,4,7,-1,-12,8,-19,-1
7148446663,-9,-6,-10,-7,0,-16,9,-3
7148446663,-3,-9,0,-3,4,37,-27,3
7148454872,9,-2,7,6,3,-8,34,4
7148454872,-20,-5,-3,-8,-3,-13,0,-3
7148469968,2,-9,0,5,6,12,0,1
7148469968,-1,1,-3,0,-4,-8,3,-7
7148470626,8,0,5,-1,0,-10,-18,3
7148470626,4,6,-3,-1,-1,11,16,2
7148492432,0,0,-6,-2,-3,-6,-8,-2
7148492432,-9,-4,1,1,-4,-1,5,-3
7148493117,5,-3,-3,-2,1,1,-5,2
7148493117,-8,1,1,-4,-4,-18,14,-17
7148506785,-4,-5,4,4,1,7,20,20
7148506785,6,1,1,-4,-4,9,-4,-2
7148515027,-4,2,0,0,-3,-6,-6,-3
7148515027,3,-4,-1,1,3,-2,8,0
7148529893,2,8,-4,-6,-7,-10,-18,-6
7148529893,-20,-2,-3,-3,0,-2,8,-1
7148530617,12,-4,-2,6,8,4,7,1
7148530617,-4,-7,1,5,2,10,-22,-3
7148552410,-2,14,2,-2,-1,-5,-11,0
7148552410,30,12,-4,-26,-16,0,4,10
7148553101,-65,-37,-1,25,9,-5,-10,-14
7148553101,35,-3,24,33,9,13,13,6
7148566746,-7,9,-23,-8,-1,-9,-10,-9
7148566746,5,-25,-17,-8,-5,-12,5,1
7148574962,-10,39,10,-5,-5,1,3,1
7148574962,21,45,39,18,-17,-1,0,6
7148589911,-35,-102,-52,-20,26,4,4,-15
7148589911,11,-4,-4,-33,-23,-5,-10,-7
7148590638,-8,29,-2,12,-5,-13,-7,10
7148590638,-11,-19,-2,-7,-8,0,-6,-4
7148604259,27,64,37,45,14,8,2,5
7148604259,-27,-54,-5,3,11,7,5,-9
7148611760,22,-18,-3,-20,-4,2,1,2
7148611760,-19,11,-17,-23,-15,-11,-1,0
7148626747,-8,16,24,9,-25,-14,-18,-2
7148626747,-1,25,-12,-8,19,7,-3,-4
7148634983,35,8,9,10,0,6,4,3
7148634983,-30,17,-9,-9,17,10,7,6
7148649839,9,-14,2,-25,-17,-1,7,1
7148649839,-13,3,0,23,-6,-5,0,-1
7148650639,18,-3,-1,-10,-11,-9,-6,4
7148650639,13,2,-10,0,26,4,-2,-1
7148664287,-6,-11,10,3,-3,8,5,-3
7148664287,0,16,6,21,19,1,7,3
7148671789,4,-24,-2,6,-6,2,0,3
7148671789,-5,-29,-24,-28,-8,-10,-3,-1
7148686713,-3,3,16,5,-33,-25,-6,-3
7148686713,-3,-19,-1,0,17,15,4,-4
7148694879,-7,-6,-8,6,11,-12,-8,-6
7148694879,-1,-9,-8,-6,1,4,3,2
7148709285,4,-7,-3,2,-6,-11,-10,-5
7148709285,3,16,14,16,8,4,13,3
7148717433,-24,-23,6,-34,-30,0,-8,-13
7148717433,8,7,-8,21,1,-22,1,-5
7148724286,6,2,1,-22,-5,15,-21,8
7148724286,21,22,6,38,45,7,9,10
7148731784,-1,13,-33,0,17,-18,3,-5
7148731784,-6,-15,-11,-17,-67,8,8,0
7148746822,9,-2,9,50,75,35,20,5
7148746822,-8,4,2,-10,-24,-4,5,0
7148754959,12,29,0,12,23,11,1,1
7148754959,-26,-25,15,-18,-21,-14,6,-10
7148769308,-4,-12,-32,-42,-34,-15,-6,-3
7148769308,4,0,1,-5,-10,-10,-4,-12
7148777343,2,-4,-6,3,0,10,-7,15
7148777343,-17,3,-12,-28,-18,-15,-23,-16
7148792421,-3,-8,0,11,14,15,9,0
7148792421,0,11,15,1,-1,-15,-10,-2
7148793132,-11,-34,-1,-16,-20,7,27,-1
7148793132,9,10,-1,11,21,-16,-6,4
7148806799,-1,14,2,5,13,11,4,-1
7148806799,-11,-2,-12,-11,-26,-21,-19,-12
7148814974,7,2,12,-4,-7,1,-4,3
7148814974,11,-10,1,15,26,27,9,10
7148829305,-4,-15,-8,-2,-6,-18,-4,-6
7148829305,-9,-15,-4,-11,-16,-14,0,-5
7148837479,-9,-1,7,2,8,10,7,0
7148837479,8,3,1,4,15,-1,6,8
7148844283,-5,17,-3,-8,-16,-10,-11,-6
7148844283,6,1,2,-1,-4,12,-10,3
7148851756,3,6,3,-1,4,-14,-6,2
7148851756,-1,-1,0,1,2,13,-9,-5
7148866670,3,-1,2,-8,-5,1,8,0
7148866670,9,-7,-4,3,-1,4,-1,8
7148874949,12,-3,-1,10,1,-7,-1,-5
7148874949,-22,-14,-20,-19,0,1,2,-2
7148889280,-4,4,10,3,0,7,5,0
7148889280,29,-16,-8,-12,-6,7,-2,4
7148897432,2,35,9,10,-14,2,-14,-4
7148897432,-16,-22,7,15,16,5,-5,4
7148912374,0,-14,-15,-15,-3,-8,1,-2
7148912374,-21,6,12,1,-21,-11,-6,-7
7148913127,39,66,28,18,7,5,-8,10
7148913127,-6,-5,-27,-6,15,8,2,0
7148926715,2,-17,4,10,8,-1,1,-1
7148926715,-8,3,-10,-11,-2,1,2,-2
7148934870,4,-8,17,10,-4,-1,-3,-2
7148934870,-5,-10,-5,7,-6,-13,-5,-6
7148949225,21,90,15,-13,-22,-11,-7,4
7148949225,-25,-21,0,8,9,0,-4,-8
7148957346,-9,-73,-41,-9,4,4,5,1
7148957346,3,26,34,4,-14,-10,-10,-6
7148972420,-4,-25,-27,-28,4,6,1,-9
7148972420,5,105,13,11,4,6,24,11
7148973133,-9,-52,11,1,9,1,-15,4
7148973133,28,4,-30,6,-6,-7,-14,-6
7148986840,-6,14,18,16,-7,-2,-1,3
7148986840,-38,-93,-38,-49,1,-2,-4,-9
7148994939,2,65,-4,-18,-17,-2,7,-5
7148994939,-10,-46,7,11,10,7,4,3
7149009266,-3,6,9,28,2,-4,-2,-3
7149009266,25,46,-12,-11,-6,3,-3,4
7149017339,-18,-1,-12,-28,-14,-5,8,-5
7149017339,8,20,13,4,-7,-6,-5,2
7149032437,5,4,0,7,9,12,11,2
7149032437,-4,-27,9,9,7,-9,-3,2
7149033091,-8,-5,-1,24,-4,11,-5,-12
7149033091,8,13,6,-24,-36,-7,-1,1
7149046773,-11,-37,-7,5,57,-2,0,1
7149046773,8,3,12,28,-18,-6,-7,-1
7149054957,-5,-5,6,12,-4,0,3,-2
7149054957,-6,-13,-29,-53,9,-7,-10,-4
7149069253,1,-8,-10,-19,1,8,4,0
7149069253,5,-16,-8,-3,4,-4,-6,-1
7149078163,-6,-3,0,15,22,-5,7,-4
7149078163,-2,5,5,-3,-11,10,-5,-4
7149091754,-5,7,1,-19,-10,-7,-3,-4
7149091754,-2,-2,7,4,-16,-4,5,-1
7149100639,10,4,-8,2,2,7,7,7
7149100639,5,19,8,12,6,-4,14,1
7149106759,-4,14,0,-8,-10,-7,-4,-2
7149106759,9,12,-6,-22,5,15,-4,0
7149115667,-20,-15,-1,8,-13,-11,-4,-2
7149115667,5,3,-11,-8,22,-1,0,3
7149129234,5,20,20,33,-1,-2,-4,-1
7149129234,-4,0,-2,-1,-3,-1,10,1
7149138119,4,8,-10,-21,2,-8,-14,-2
7149138119,-3,3,7,7,-3,-5,-3,-7
7149151737,-7,-21,-12,-3,-17,0,-3,-2
7149151737,-6,7,8,4,6,-5,-1,-1
7149160631,7,7,-5,-11,5,2,-4,-4
7149160631,-28,0,15,18,-4,5,5,-2
7149166637,-2,-27,-18,-25,-15,-5,0,0
7149166637,2,6,1,3,1,-5,-6,-2
7149175642,-7,5,4,-10,-6,-9,-6,-4
7149175642,19,12,-1,4,7,15,7,5
7149189231,3,-4,-3,4,-5,-11,-2,-2
7149189231,-3,-10,-1,5,4,27,1,2
7149198137,-9,-13,-6,-3,2,-1,-9,-5
7149198137,16,5,-2,2,-3,-13,-8,2
7149211747,1,-9,-5,-6,-16,-14,20,-7
7149211747,-12,-6,4,11,6,28,-44,-3
7149220618,7,-6,-8,-17,-13,-18,-7,-4
7149220618,-22,-13,4,6,4,6,-8,1
7149226636,-15,-7,-2,-4,-2,-12,-12,-6
7149226636,5,3,-1,0,-1,-19,3,-1
7149235639,1,-3,-2,-1,0,3,11,2
7149235639,6,6,3,0,-6,-12,-1,-1
7149249230,9,5,2,5,-5,-1,-15,1
7149249230,-3,-3,-2,1,0,-9,5,0
7149258105,-9,0,0,-4,1,6,0,2
7149258105,15,-7,-1,3,-2,-15,5,0
7149271694,-28,-4,-7,-1,5,26,-3,-1
7149271694,7,-8,-3,-2,3,8,21,-3
7149280599,5,1,1,-2,0,0,-9,3
7149280599,-2,2,4,1,1,-8,2,-3
7149286733,14,14,7,7,4,12,-4,8
7149286733,-16,-31,-7,-14,-3,-7,-1,-4
7149295700,14,12,-1,18,3,0,-2,-2
7149295700,-21,26,9,11,2,0,-2,-6
7149309164,-12,-65,-6,-7,-11,-9,-8,-9
7149309164,28,44,-15,-17,-2,-7,5,8
7149318134,-17,-35,2,-11,-5,6,9,4
7149318134,36,-8,1,3,5,11,-4,1
7149331768,-22,44,12,-8,-3,-5,8,-5
7149331768,-28,-33,-15,27,3,-2,-5,-11
7149340633,11,-48,23,12,3,0,3,4
7149340633,2,-25,-41,-30,-1,6,2,-1
7149355640,22,52,3,0,-2,3,0,11
7149355640,35,62,28,-6,-8,-9,3,4
7149357067,-33,22,-6,-1,-3,-4,-7,-12
7149357067,-10,-33,1,32,9,5,2,0
7149369147,-13,-28,-25,-7,-10,-10,-7,-7
7149369147,3,2,10,-7,-7,-6,-2,1
7149378092,39,45,3,-4,4,8,10,8
7149378092,-12,22,7,-11,3,4,-2,-3
7149391731,-27,-24,-17,7,4,1,6,2
7149391731,-13,-18,7,4,-7,-7,-10,-10
7149400628,2,4,0,-14,-16,-11,-6,-3
7149400628,15,33,5,6,-13,-6,1,-2
7149406746,8,9,-2,-9,10,7,13,4
7149406746,-5,-5,8,30,33,24,10,3
7149415590,-3,-1,-3,-11,-9,-7,-3,-2
7149415590,-6,-15,-10,-9,-1,13,0,-3
7149429687,18,5,11,11,-9,-15,2,4
7149429687,-33,-7,-2,-20,-23,-9,-8,-5
7149438126,-2,-16,-16,26,14,-16,4,-9
7149438126,-5,4,-1,-16,-3,5,7,2
7149460477,8,-14,-8,1,7,4,-4,-2
7149460477,4,-10,-7,-19,-3,7,11,0
7149462063,-9,-1,7,17,11,3,-6,2
7149462063,-7,6,-6,-9,-16,-29,-11,-8
7149466718,7,3,10,-1,0,22,-9,-5
7149466718,9,21,15,42,17,-3,6,7
7149475614,-15,-15,-9,-37,-34,-6,-3,-6
7149475614,6,11,5,33,16,4,-2,-1
7149489261,2,-15,-11,16,3,-9,4,1
7149489261,6,3,-17,-40,-26,-10,-14,-2
7149498098,-12,-17,6,-9,21,18,7,-2
7149498098,-2,-22,-9,-13,-2,-9,-4,-2
7149511787,6,23,-7,4,-25,-14,-12,-8
7149511787,3,-14,0,25,11,8,12,4
7149520569,9,15,-19,-4,2,5,2,1
7149520569,5,-3,11,6,11,6,-2,2
7149526764,-12,6,-5,10,4,-8,14,-1
7149526764,-6,-22,-5,-25,-8,-10,-39,2
7149535617,12,8,-20,-24,-8,1,-31,3
7149535617,-15,2,16,12,-14,-18,11,-2
7149549267,16,-2,7,-11,6,21,5,7
7149549267,-13,-10,-7,7,-1,-13,14,-14
7149558077,-11,-4,4,14,1,-3,-33,-1
7149558077,-10,-8,12,-1,-4,4,50,1
7149571730,6,14,21,5,3,-5,-39,6
7149571730,-3,-21,-16,-19,-7,-11,-39,-7
7149580591,-19,24,15,9,7,25,55,-3
7149580591,-2,-11,-9,-11,-6,-26,-12,-14
7149586769,1,-19,-5,-15,-3,7,-8,3
7149586769,4,12,4,11,4,31,40,-4
7149595569,1,-9,-5,-3,0,-18,-14,5
7149595569,-12,8,-2,-3,-1,9,-24,5
7149609236,-4,1,0,-1,-3,-13,0,-1
7149609236,7,10,1,-1,2,-4,22,1
7149618084,-3,-10,-1,2,-2,-5,6,-8
7149618084,26,-2,-1,-3,0,12,-20,8
7149631738,0,-19,-8,-7,-3,-11,-15,-12
7149631738,-18,-23,-2,0,0,0,0,1
7149640658,1,1,5,-7,-1,-2,6,4
7149640658,15,1,-6,6,-8,2,-3,1
7149646616,20,40,17,-5,4,0,18,4
7149646616,-52,-72,-11,13,1,-3,-11,-15
7149655634,21,40,5,-9,3,11,13,7
7149655634,-48,-47,-39,0,-2,-9,-7,-16
7149669211,-16,-14,-15,-4,5,2,6,-4
7149669211,28,92,33,7,-10,-4,3,15
7149678144,10,58,-3,14,-2,-8,-8,-4
7149678144,-15,-102,-16,6,1,7,1,1
7149691633,20,95,62,-4,-22,-12,-3,3
7149691633,-23,-20,-81,-72,3,2,0,-3
7149700609,21,22,37,46,18,13,12,5
7149700609,4,27,7,22,17,13,2,-1
7149706765,-19,40,27,0,-4,2,8,3
7149706765,29,54,51,32,-30,-13,-2,0
7149715555,-9,18,-53,-72,8,-3,2,4
7149715555,-53,-63,-64,-45,-22,-16,-16,-17
7149729191,28,5,43,37,2,-1,7,3
7149729191,-8,23,-17,9,29,18,7,6
7149738113,-25,-103,-3,6,-12,-5,-6,-11
7149738113,25,103,36,5,5,6,6,7
7149752428,-3,-23,-27,11,-25,-15,3,-8
7149752428,8,-12,-6,-9,6,-7,6,2
7149759211,-4,-37,-16,-5,1,1,10,-7
7149759211,-22,24,3,-20,-22,-1,8,10
7149766721,-4,2,-14,9,4,23,-9,-3
7149766721,8,14,11,15,16,2,14,1
7149775591,1,6,10,-9,-20,9,-11,-3
7149775591,26,24,7,15,-8,1,-6,-3
7149789204,-5,-35,-18,-18,-7,-12,-25,5
7149789204,2,-25,15,11,30,9,39,8
7149805568,-14,-7,5,36,3,-19,-13,-7
7149805568,15,20,15,-15,12,17,1,5
7149812431,-15,-44,-28,-20,-2,2,-24,-3
7149812431,14,-40,-6,-2,-9,7,-5,-4
7149819125,-4,-16,14,-22,-25,-19,5,0
7149819125,-2,-21,-3,64,12,7,-3,-7
7149835496,-5,-28,-3,-11,6,-11,21,-4
7149835496,3,8,0,8,8,-6,-18,-2
7149837070,-7,-10,2,0,-4,7,7,-3
7149837070,4,8,10,-41,-2,0,3,2
7149849221,-11,-19,-11,3,-17,1,8,-7
7149849221,8,9,2,-6,9,-13,-24,3
7149858091,-1,18,3,-12,-3,2,2,-5
7149858091,15,8,10,6,-4,-17,-23,5
7149872336,-7,-1,-13,19,19,1,21,-4
7149872336,-1,17,7,16,-14,-15,4,-1
7149879214,-2,-3,-24,-7,2,18,-5,-1
7149879214,6,7,-4,-20,-2,-4,3,0
7149895534,4,7,3,10,7,-7,-9,4
7149895534,-4,-3,0,1,-17,-10,-6,-10
7149897034,2,-6,-13,-6,7,-3,-22,5
7149897034,4,1,13,11,-3,-8,10,2
7149909214,-18,-16,-6,23,14,1,-1,-5
7149909214,-5,-14,-14,-38,-7,3,-4,-3
7149918134,8,-1,9,1,-2,1,2,1
7149918134,-4,3,12,-3,-3,-7,0,-3
7149932383,0,-3,-8,-13,-2,-6,-15,-1
7149932383,2,1,7,0,-1,4,17,-1
7149939205,-12,4,2,15,1,-12,-3,-8
7149939205,7,9,0,-3,4,7,7,7
7149955565,-2,-20,-9,-22,-10,-11,6,-8
7149955565,6,-12,-5,0,-13,-5,-58,10
7149957108,-8,-5,-3,-2,1,-1,7,-4
7149957108,4,-6,3,9,10,11,5,-4
7149969129,-3,3,0,-11,1,-4,7,0
7149969129,-1,-1,0,-1,-2,5,-22,-2
7149978066,19,16,3,4,-2,-15,2,4
7149978066,-10,0,-1,-12,-9,5,-6,-2
7149992381,-2,8,2,-2,4,11,-12,3
7149992381,-7,-47,-7,1,-7,-7,7,-6
7149999289,-6,11,-1,-2,0,8,25,-3
7149999289,11,3,-2,1,1,-1,25,3
7150015404,7,-8,-2,-5,3,-10,-3,0
7150015404,-12,13,7,4,-3,19,10,0
7150017004,-10,18,-1,1,-2,-7,-4,-2
7150017004,1,-40,-7,2,2,-1,-8,-6
7150029047,3,22,2,-15,-4,11,5,5
7150029047,7,1,1,9,3,-1,8,-4
7150038080,3,18,4,-1,-3,1,-7,2
7150038080,5,44,-27,-9,10,1,-2,6
7150052244,2,-60,-1,4,-6,0,-1,0
7150052244,-2,9,4,0,-16,-13,-6,-5
7150059040,8,80,-1,-18,2,1,-2,-1
7150059040,-10,-58,11,15,-15,-5,-8,-5
7150075403,3,8,-35,-53,-1,4,8,0
7150075403,-31,-34,-22,-11,5,0,4,-6
7150077066,5,-30,12,27,6,2,-4,1
7150077066,-2,10,-1,-12,3,-1,-3,1
7150089060,0,56,8,1,-11,-5,-3,-2
7150089060,18,0,17,30,-3,-7,-3,3
7150098063,-10,-26,-24,-37,-2,0,-4,2
7150098063,13,14,-5,5,-1,-9,-6,-5
7150112250,12,-41,16,21,20,14,9,10
7150112250,-12,24,5,5,0,2,2,-4
7150119022,11,26,14,17,-5,-7,1,2
7150119022,-4,-18,-2,-9,-3,1,-2,2
7150135379,-14,15,-1,9,3,-9,-4,-8
7150135379,3,16,8,-8,-2,4,3,-2
7150137001,-11,-40,-6,-2,-6,0,-10,-1
7150137001,2,20,6,-15,-2,-21,5,9
7150149083,-17,-4,-8,8,3,21,6,-5
7150149083,6,7,2,9,14,4,4,4
7150158030,3,-13,-9,-8,-2,1,-3,-2
7150158030,0,-8,-2,2,-4,-7,-9,-6
7150172295,3,3,12,6,3,-7,8,0
7150172295,-6,-8,-13,-7,-3,2,-2,-2
7150179046,-2,-20,14,22,-6,-2,-1,-2
7150179046,-5,2,-9,-5,0,-12,-10,-5
7150195421,-5,-3,-12,-5,-13,3,1,-7
7150195421,7,-3,16,1,-2,-1,-3,3
7150197032,0,-23,-12,7,-1,-2,0,0
7150197032,-7,-1,-7,-2,5,-8,-2,-2
7150209020,-3,0,10,-5,-26,-3,0,-4
7150209020,-3,-5,-16,-13,24,14,-1,-5
7150218050,-2,-3,15,22,4,8,8,3
7150218050,1,9,20,10,-19,-7,-5,-6
7150232254,-8,-14,-10,4,23,-6,-8,-4
7150232254,-13,-19,6,-3,-52,-11,-16,-8
7150239022,-8,-20,-13,-24,31,16,4,-1
7150239022,8,4,-10,-27,-13,-12,-3,3
7150255371,10,10,-5,-2,-4,6,-1,2
7150255371,4,17,10,31,-11,-18,3,1
7150257023,-4,-2,-35,-32,5,6,-2,-4
7150257023,-4,-3,9,22,-13,1,3,1
7150269055,-1,-2,5,9,21,-11,-10,-1
7150269055,6,8,-10,-32,-10,8,6,2
7150278144,2,0,21,60,22,2,3,0
7150278144,-5,-3,-14,-11,13,13,4,0
7150292404,-2,5,5,-2,-12,-12,-7,-3
7150292404,-1,15,-4,-3,-1,-3,-1,-5
7150299157,-3,-1,11,-3,-13,-8,1,0
7150299157,-8,1,4,-2,2,1,-4,-3
7150315555,-5,-3,-2,7,8,11,3,1
7150315555,4,-12,1,-3,8,-5,-8,3
7150317087,-5,-8,-10,-19,-14,-19,-11,-7
7150317087,-5,-2,-3,4,2,-3,13,-3
7150329191,5,8,-11,-9,1,34,-35,5
7150329191,-5,-12,-10,-5,7,-2,29,1
7150338111,27,-1,-3,-5,-13,-14,-21,-3
7150338111,-46,-10,1,4,5,16,25,-11
7150352378,-9,-7,5,-3,-8,-5,-26,-7
7150352378,-5,-6,-1,-5,5,-10,-19,8
7150359203,18,-1,3,4,2,-6,9,0
7150359203,6,-10,4,-2,2,10,24,3
7150375546,-1,-15,-5,-11,-11,-25,12,-7
7150375546,6,5,-4,-1,2,19,-18,-4
7150377063,-13,0,-1,-6,-9,-11,1,-3
7150377063,18,-1,-1,-2,-2,2,-28,1
7150389206,-39,-19,-1,0,-2,-18,15,-9
7150389206,5,19,-1,-4,3,10,15,0
7150398069,5,-5,-5,0,-2,3,-1,6
7150398069,22,33,2,1,-1,3,-10,-2
7150412363,11,-12,-2,4,-1,-4,4,6
7150412363,-19,4,-13,-16,-6,-11,-3,-7
7150419247,4,71,29,14,0,9,8,6
7150419247,-13,-72,-20,10,8,-1,-9,-11
7150435585,10,19,9,-5,-10,-2,9,10
7150435585,18,42,14,11,4,-2,-3,1
7150437078,-29,-77,-18,-25,5,8,8,1
7150437078,12,55,4,-12,-9,7,1,0
7150449107,-16,-63,-15,-29,-3,-5,-2,-4
7150449107,15,23,20,57,4,3,4,7
7150458115,-26,-43,-17,3,2,-1,0,-5
7150458115,-13,1,5,-7,-12,-11,-10,-8
7150472329,-12,-6,-40,-49,-1,-2,-4,-9
7150472329,15,-26,-22,-15,0,-2,8,8
7150479183,-26,37,-19,2,-24,-8,-13,-16
7150479183,9,-8,-13,5,27,11,18,7
7150495534,-1,37,33,62,3,0,-13,-5
7150495534,-10,-6,11,-16,0,-6,-3,-1
7150497042,24,22,-8,-11,20,-7,-7,7
7150497042,7,9,10,-4,-34,5,-6,-4
7150509084,16,29,14,2,-16,6,13,10
7150509084,-2,9,-12,-11,10,-26,-3,-5
7150518060,0,26,11,4,17,26,22,4
7150518060,-7,63,1,9,7,17,39,11
7150540556,10,23,10,10,12,-18,-10,-2
7150540556,-2,-3,-14,-18,-23,22,2,-6
7150542068,-7,7,6,3,6,-11,-4,-3
7150542068,13,-27,11,7,6,-18,-21,0
7150555492,0,-14,-21,-28,-33,14,5,-1
7150555492,-8,-24,1,14,-12,-12,-2,-6
7150557025,1,-33,12,-20,21,-13,-1,1
7150557025,-2,-34,-17,-3,8,20,-7,-1
7150569641,-11,-23,0,15,3,-18,-3,1
7150569641,-6,-18,-1,-33,-21,9,-1,-7
7150578046,3,-16,-10,-7,-18,11,0,-3
7150578046,-1,-16,4,-4,7,-18,-20,3
7150592359,8,14,1,-7,11,-10,8,0
7150592359,-1,1,14,44,-13,-1,-2,-2
7150599196,5,11,-17,-5,18,-2,-5,0
7150599196,1,10,-12,-30,-24,-18,-13,-3
7150614868,4,13,23,43,18,14,8,-2
7150614868,-12,-9,-21,-48,-10,-14,-7,-2
7150621707,-4,2,0,7,-4,-9,-12,-7
7150621707,-8,0,-8,-23,-11,-9,-5,-3
7150629233,11,9,-2,-3,-2,13,3,2
7150629233,-15,-12,11,37,16,-7,-3,-5
7150638049,3,8,-15,-33,-13,2,-2,-2
7150638049,5,-3,16,23,1,-5,-3,1
7150652289,4,7,-13,-16,0,-12,9,2
7150652289,-3,-13,-5,-5,18,22,5,4
7150659208,3,11,9,12,-20,-6,0,-1
7150659208,-10,-7,8,6,-2,1,-1,-2
7150674861,5,6,-1,-4,-3,2,1,-3
7150674861,6,5,-3,-2,9,-13,15,8
7150681598,0,-9,6,13,-12,-10,12,-6
7150681598,10,-2,7,5,9,3,8,11
7150689141,-13,-9,-12,-9,-3,39,-22,-10
7150689141,14,13,-1,-7,3,-2,2,3
7150698010,4,1,4,-2,-7,1,14,-1
7150698010,-30,-5,0,0,2,-5,-2,-6
7150712354,-8,-6,2,-1,-1,-10,-1,2
7150712354,-3,-5,-1,1,3,-1,-7,-4
7150719207,11,8,5,4,-7,-5,-5,-6
7150719207,3,5,3,6,7,6,11,12
7150734863,18,4,-5,1,3,6,-10,7
7150734863,-2,-5,-2,-7,2,-6,-11,-4
7150741639,0,-6,2,2,-4,-7,7,0
7150741639,-2,-5,-3,-1,-1,6,-24,-5
7150749185,-6,-13,0,-2,1,-9,7,-3
7150749185,-2,-8,3,-2,0,-8,-1,-2
7150758023,-2,1,-3,-1,-8,8,-7,-1
7150758023,-9,0,-4,-2,-3,-9,-31,-6
7150772338,6,-2,0,2,2,11,10,3
7150772338,12,19,8,0,-4,-7,-7,3
7150779208,-5,-11,-12,-3,-9,-4,-16,0
7150779208,0,-1,-5,1,6,8,4,-5
7150794890,-8,13,1,7,2,-12,9,-1
7150794890,-21,-25,-9,-20,-11,-5,-6,-2
7150801556,15,2,21,31,11,10,8,7
7150801556,-7,51,-3,-27,2,2,14,-2
7150818508,14,-9,-12,-3,-1,-6,-9,-1
7150818508,-17,35,11,15,6,6,9,0
7150820018,-14,-30,6,12,-6,-4,-13,-5
7150820018,14,-41,23,-1,-8,-8,-3,4
7150831709,-15,20,-40,-33,1,-5,-2,-8
7150831709,21,30,0,-19,-12,-1,-2,2
7150848088,-17,-25,-22,-3,4,1,-5,-3
7150848088,-7,34,11,15,0,1,8,-3
7150854753,4,8,37,35,1,-8,-2,3
7150854753,13,-19,-34,-41,-8,4,19,-1
7150869203,-4,6,5,19,7,5,-16,5
7150869203,2,8,-9,0,3,-3,4,2
7150878061,-13,-2,8,-10,-9,0,1,-5
7150878061,13,19,-4,10,6,-5,-13,0
7150879540,-48,29,16,10,-1,9,4,-9
7150879540,17,16,-28,-16,-3,-10,27,2
7150892410,16,17,6,2,6,15,-26,2
7150892410,2,-19,8,18,-1,-8,-6,-4
7150899143,-10,-17,-32,-57,-18,6,-5,2
7150899143,4,-10,12,9,2,-3,-2,-4
7150914887,-18,-35,-3,1,7,-7,9,-4
7150914887,-6,-27,3,19,20,15,-26,-4
7150921662,8,8,1,-14,-8,0,-4,0
7150921662,-3,-26,-4,-3,-7,-7,-12,-6
7150937999,15,-25,-1,9,7,-13,5,10
7150937999,-15,-24,-12,-28,-14,2,-6,-4
7150939542,20,13,-4,-6,-4,-14,-5,2
7150939542,-14,-27,12,15,11,22,7,-4
7150951662,-5,-11,9,2,-11,-16,-4,-6
7150951662,-14,-5,-13,-18,2,3,5,-8
7150960585,4,2,4,18,-22,3,4,-5
7150960585,-7,-10,-42,-72,-30,-21,-17,-1
7150974853,-4,6,-5,13,7,10,10,-1
7150974853,5,10,19,11,9,2,3,3
7150981529,3,-6,-4,27,25,3,10,1
7150981529,-9,-21,2,15,-2,-5,-11,-7
7150998057,-26,2,-3,-10,-16,-10,-5,-7
7150998057,2,8,-4,-20,-18,-12,1,-2
7150999539,3,-3,5,-3,7,1,4,0
7150999539,9,18,7,16,6,7,7,7
7151011685,-9,-8,-5,-3,-5,-4,-6,-7
7151011685,5,1,13,28,0,-2,1,2
7151020501,9,12,-12,-25,-4,-15,-5,1
7151020501,-2,10,4,19,11,20,10,0
7151034890,-7,-12,0,-18,-8,-9,-2,-8
7151034890,10,20,-4,18,8,6,-3,9
7151041690,-1,-1,2,-5,-6,-1,2,-2
7151041690,4,0,-6,-7,-4,-8,5,-3
7151058085,4,13,0,7,5,-6,-5,3
7151058085,-12,3,4,7,6,15,2,-2
7151059552,4,7,-7,-5,7,-13,-17,3
7151059552,3,-6,-3,-2,-7,19,-3,1
7151071664,9,-9,0,1,2,-12,18,4
7151071664,7,-6,5,-1,-4,-17,1,-3
7151080542,0,-13,5,-6,-2,18,2,7
7151080542,-4,-18,-4,5,-1,-11,-3,-10
7151095395,-4,4,2,-1,2,2,-4,8
7151095395,2,-14,-10,-5,1,8,-29,0
7151101646,-2,3,6,1,-2,-6,5,-4
7151101646,15,3,5,4,1,-6,-5,0
7151125473,-3,10,-2,-5,2,12,7,-1
7151125473,-4,-1,-3,1,0,-7,8,-4
7151127041,-5,-4,2,0,-1,2,-5,-5
7151127041,-7,-8,-1,3,5,6,-6,4
7151131695,-11,-15,-2,-7,-9,0,-32,4
7151131695,-12,-6,-1,1,-3,0,3,-6
7151140519,-4,-2,8,0,0,-5,5,0
7151140519,19,27,2,-2,1,2,6,4
7151154833,-15,-47,-9,-3,-2,3,-14,-1
7151154833,6,42,10,3,0,4,16,1
7151161696,12,-10,-13,-5,-3,-8,8,-1
7151161696,7,-9,8,10,-1,7,-1,1
7151178120,-4,66,-12,-11,1,-8,-1,-7
7151178120,-1,9,2,-6,-5,1,4,-1
7151179558,-22,-23,-7,5,-1,-7,-2,1
7151179558,11,15,10,7,-2,-2,4,7
7151191664,-7,8,21,37,8,11,9,-5
7151191664,15,0,-14,-30,1,-6,6,-5
7151200564,31,38,-8,-8,-3,3,-4,11
7151200564,-36,10,7,7,1,-12,-5,-7
7151214785,18,-40,-16,-9,-6,-4,-5,4
7151214785,13,25,17,17,-5,-5,12,-1
7151221668,-7,-12,-9,-1,10,10,-11,1
7151221668,-4,-41,-12,-15,-9,-8,-4,-4
7151237992,12,21,-2,-16,-14,-6,-2,-7
7151237992,-6,24,4,18,17,6,7,6
7151239520,-12,-12,11,15,-8,-4,2,-6
7151239520,0,13,-10,-21,-1,-8,-12,-4
7151251660,18,30,10,8,-7,4,9,-5
7151251660,-19,-32,-15,-18,-8,-17,-26,2
7151260503,-7,26,21,25,8,27,13,-2
7151260503,-8,27,-10,-1,6,4,-3,-1
7151274847,17,13,0,8,1,-17,4,4
7151274847,5,5,-2,2,0,13,-8,0
7151281694,-18,-2,-2,-24,-14,-10,8,-6
7151281694,-8,-12,-2,17,3,-7,-14,-6
7151297956,3,-15,-1,-21,-12,-8,8,3
7151297956,-13,-46,-7,19,-7,-4,-3,-9
7151299490,5,3,0,-5,25,8,7,1
7151299490,7,-7,1,17,4,7,2,-1
7151311647,-5,-22,1,-7,-2,2,0,1
7151311647,-1,-18,1,-3,4,-4,4,-1
7151320558,-14,-34,-8,-9,-16,-3,-11,-9
7151320558,-2,17,-2,-16,-17,-18,-10,-4
7151334860,3,-6,-5,10,11,10,14,7
7151334860,-10,-8,-6,-3,-6,-2,-2,-3
7151341632,6,5,-11,-9,-9,-23,-13,-11
7151341632,-1,-3,-9,-4,0,3,0,1
7151358044,-16,13,7,-18,-17,0,-8,-9
7151358044,2,3,0,1,9,12,-1,7
7151359547,2,11,-4,11,3,-8,10,0
7151359547,12,-8,2,-1,2,1,-10,12
7151380484,-15,-23,-5,-7,5,9,6,-4
7151380484,8,15,-3,10,0,-16,-22,-1
7151381991,-4,4,6,-6,-3,-2,25,-1
7151381991,-4,-7,-9,-2,1,23,-5,-5
7151394159,4,-1,-13,-10,-1,3,18,-6
7151394159,-4,0,-3,2,0,-16,10,2
7151403101,-17,-6,2,-6,-6,25,-26,-4
7151403101,18,0,7,-5,-3,-19,-6,3
7151418081,-4,6,0,8,7,-6,-1,5
7151418081,-10,9,3,-8,-5,1,-1,-7
7151419545,7,6,2,-3,-7,-20,-16,-4
7151419545,-6,-12,0,2,7,26,42,0
7151440486,18,-4,2,3,3,3,-13,3
7151440486,-23,-21,1,0,-3,-6,14,-5
7151441996,-3,-2,-3,-4,1,1,6,1
7151441996,0,3,-2,0,0,-18,-9,-4
7151454070,0,-6,-5,-3,0,-4,10,6
7151454070,8,-3,3,-4,-3,9,20,-3
7151463013,-2,-8,-5,2,-3,-19,-4,3
7151463013,-6,-3,3,-3,-1,1,-4,-3
7151477963,8,-8,0,3,1,5,-7,-3
7151477963,8,-2,-5,-7,-1,-6,-17,-1
7151479470,-27,-20,1,0,3,12,17,3
7151479470,5,-2,0,-1,-5,-9,6,-4
7151500511,-25,3,1,2,4,8,0,-1
7151500511,13,3,-1,-1,-5,1,1,4
7151502030,24,11,0,-2,-3,-4,-4,-6
7151502030,-16,3,1,-1,-1,2,-2,2
7151514210,-5,2,-3,0,-1,-4,-4,-5
7151514210,4,4,3,-12,-5,4,-2,2
7151523005,6,6,-10,-10,-1,-3,-17,7
7151523005,-16,-5,9,40,2,3,5,-8
7151537985,25,8,-10,-4,6,0,-4,0
7151537985,-32,-5,-15,-12,1,-2,-1,-4
7151539522,20,24,20,14,0,4,3,0
7151539522,3,-30,-19,-25,3,-6,-2,0
7151560445,-16,2,19,17,-2,1,-3,-1
7151560445,5,1,-18,-14,1,-1,-3,2
7151562026,13,32,22,12,-4,-1,-1,0
7151562026,27,12,-1,-4,7,3,5,7
7151574033,-10,11,-2,-5,-9,-7,-9,-7
7151574033,-3,-26,-2,7,9,5,3,3
7151583040,-3,-9,-4,1,-2,2,-2,-1
7151583040,0,12,2,-21,-16,-10,-11,-8
7151597308,-2,-5,8,16,15,8,12,8
7151597308,10,29,16,41,-11,-7,1,-1
7151604172,-1,-77,-22,-19,16,9,4,5
7151604172,-29,74,17,22,-4,-2,-2,-12
7151620482,9,-17,-11,-21,-3,-4,-9,2
7151620482,16,28,14,12,-6,-3,10,-3
7151621990,-20,36,1,-10,-6,-17,-4,6
7151621990,-5,-11,-4,1,-1,8,-30,1
7151634800,6,-27,-10,-6,4,2,-5,-1
7151634800,9,18,12,4,-2,-3,-5,0
7151641659,2,15,4,-8,1,13,19,-3
7151641659,-20,-14,-13,-13,-10,-13,-8,-1
7151657367,-6,0,-4,3,4,-9,0,-2
7151657367,8,-15,0,-1,2,23,-13,4
7151664099,10,-3,-1,4,-4,-20,-9,4
7151664099,-20,-28,10,10,12,7,4,-10
7151680983,-8,-4,-1,-2,-14,-8,-5,2
7151680983,-2,-20,-14,-24,-9,-8,15,-6
7151682489,-40,-18,-1,6,3,3,1,-7
7151682489,24,4,4,1,-5,-7,11,9
7151695516,3,2,-10,-1,-1,15,-21,-10
7151695516,-18,-18,-4,-10,1,-11,-2,-4
7151701530,21,5,1,12,1,8,-3,-3
7151701530,-14,-34,3,19,10,-2,9,-5
7151716659,6,9,-16,-42,-5,-5,13,-1
7151716659,-7,-8,-1,24,1,10,10,3
7151724211,-24,-15,-2,-4,-13,-6,-12,-17
7151724211,6,5,-12,-42,4,4,5,4
7151739844,19,9,-6,-7,-22,-15,-1,2
7151739844,-26,0,-6,-19,-6,-9,-13,-5
7151740505,-1,-3,9,22,7,-3,-4,-3
7151740505,-4,2,-10,-20,-25,-4,9,-4
7151762221,-2,3,6,17,-4,-5,-8,-4
7151762221,10,6,-12,-34,0,-6,-8,-6
7151763028,38,34,8,19,10,14,30,14
7151763028,-24,-35,-17,-20,-16,-19,-8,-14
