timestamp,emg1,emg2,emg3,emg4,emg5,emg6,emg7,emg8
6795110720,-2,-7,-1,-2,-3,-3,-4,-2
6795110720,0,-13,-3,-4,-3,9,-10,-3
6795111559,1,17,2,-1,-2,-4,3,-1
6795111559,1,0,-2,-1,-1,0,0,0
6795115652,-5,-15,-1,-1,-1,-4,-5,-3
6795115652,-5,4,-1,-1,-2,0,10,1
6795117225,3,2,-2,-3,-2,3,-12,-1
6795117225,-8,-8,0,0,0,-7,-13,-2
6795130350,3,2,-2,1,0,0,4,1
6795130350,11,17,-2,-4,-1,0,6,-6
6795131938,-4,-6,-4,2,0,2,25,5
6795131938,-13,-11,-3,-3,-3,-1,-1,-6
6795137672,-1,13,0,2,0,7,-8,-3
6795137672,-1,-2,-2,-3,1,-8,4,-2
6795155492,5,-4,0,-1,-3,-5,-7,1
6795155492,9,12,-1,-1,-2,0,2,2
6795159063,-14,1,0,4,-2,-2,6,-1
6795159063,6,-7,-1,-7,-1,-11,-8,-1
6795170458,-9,5,0,-6,2,14,-3,-3
6795170458,2,9,2,4,3,5,4,1
6795182664,5,14,-3,-16,-3,-5,-6,-1
6795182664,-10,18,-5,4,-2,-1,-1,-1
6795190495,4,7,13,9,-3,-6,-4,0
6795190495,-1,0,-11,-23,-4,-5,2,-3
6795237152,-18,10,3,-16,-6,-6,-2,-3
6795237152,10,-23,-2,-3,-10,-5,-3,-1
6795238074,-11,-34,-4,11,-1,-4,-4,-2
6795238074,12,11,8,9,5,5,3,6
6795238812,-18,-28,-7,0,-2,2,-1,-8
6795238812,1,-29,0,-4,1,-1,-1,-1
6795241375,9,52,6,-2,-8,-6,-1,1
6795241375,0,-9,1,-16,-7,-9,-1,-3
6795250166,13,40,7,17,7,6,-4,1
6795250166,-11,-11,-9,-7,-4,-2,-6,-11
6795256352,-14,-2,14,20,8,0,10,2
6795256352,1,-12,-18,-24,8,12,3,3
6795272687,-5,-16,11,5,-8,-12,-1,1
6795272687,-2,13,4,-4,1,4,-3,-2
6795287677,9,-7,-15,-25,-11,-4,-3,-2
6795287677,-1,5,8,30,7,3,0,-3
6795289174,4,-5,-12,-7,-5,-4,-1,0
6795289174,-10,16,-6,3,-4,-2,-2,1
6795293728,-8,-1,0,-6,-10,-9,-6,-5
6795293728,1,1,-3,-11,-8,-9,-3,-2
6795318357,8,-9,1,12,12,7,3,1
6795318357,-11,-9,-4,-3,-4,-3,6,-1
6795319192,8,3,-3,-6,-5,0,-2,1
6795319192,-3,-12,2,21,9,0,-3,-4
6795332681,-1,-7,-8,-14,-13,-1,-5,-3
6795332681,3,11,2,6,3,-10,-4,6
6795346716,-1,-13,5,2,-1,-13,1,-1
6795346716,-7,-6,0,1,-1,19,5,-7
6795355912,-3,-8,6,-1,0,-8,-15,1
6795355912,9,8,0,-7,0,5,-3,1
6795356823,-11,-33,3,-9,3,8,-6,-8
6795356823,-11,-17,-10,-2,0,2,29,2
6795370201,3,2,-6,4,4,4,4,0
6795370201,-5,-8,3,13,5,4,3,-2
6795376290,-6,-11,4,-19,-11,-3,7,-1
6795376290,1,6,-20,-24,-4,-14,-18,-1
6795392717,-4,5,6,-10,-3,12,-3,-5
6795392717,-2,-1,7,-6,-5,-3,3,-3
6795398794,6,-3,2,27,9,5,3,1
6795398794,-4,8,3,-23,-5,-2,-6,1
6795407670,5,-1,-11,4,17,-7,4,5
6795407670,2,5,-1,1,-10,3,-9,0
6795413808,-5,2,9,11,1,3,-3,-4
6795413808,-3,-1,-7,-1,-1,-10,-10,-4
6795438326,5,16,4,-5,-8,0,5,-1
6795438326,8,11,6,-4,1,4,5,1
6795439284,6,3,-7,3,6,-2,-2,3
6795439284,-6,-7,2,2,-7,-10,-1,-3
6795452688,-4,-2,2,-3,-2,6,-11,-7
6795452688,3,-4,-5,2,1,-12,22,8
6795458805,2,8,-6,-6,0,20,-8,1
6795458805,4,2,2,8,0,-6,-14,-3
6795467600,4,-4,-2,4,-2,7,15,5
6795467600,-9,-5,-2,1,0,-6,-11,-12
6795473778,-4,-5,-7,-9,-5,-13,-1,-14
6795473778,3,1,3,2,-1,1,11,3
6795490165,-9,-2,1,4,0,-6,-27,-1
6795490165,-2,-2,0,-2,0,3,14,5
6795496273,3,1,-6,-3,2,-1,4,3
6795496273,-8,0,2,4,-5,0,1,-3
6795512692,-2,-5,0,-2,-5,-6,-2,-3
6795512692,1,-8,-6,-4,0,-5,-15,0
6795518724,5,3,-7,-4,-2,2,-1,0
6795518724,1,2,4,4,-1,-3,-6,0
6795527666,-3,-1,-3,-3,-2,-3,5,-2
6795527666,-6,-6,-2,1,1,3,-3,1
6795541300,-1,5,0,1,0,-3,-3,0
6795541300,-4,7,6,-1,-3,1,-2,2
6795550187,-3,1,-7,1,-4,-5,4,-2
6795550187,7,-7,-12,-15,-6,0,-6,-4
6795556310,-13,2,1,10,5,0,-3,2
6795556310,9,8,1,-8,-7,-1,0,0
6795572720,12,1,22,46,14,5,6,3
6795572720,-24,-7,-32,-49,-10,-2,-5,-9
6795578805,3,8,0,-5,-11,-11,-9,-5
6795578805,7,24,26,55,10,3,0,8
6795587712,-1,-6,-28,-31,3,-1,-1,-3
6795587712,10,-9,6,28,6,6,4,6
6795601298,-37,-7,-35,-39,-5,-3,-4,-12
6795601298,1,-1,-10,13,0,-7,-3,-5
6795610175,19,16,13,-4,-9,-5,-2,3
6795610175,2,2,18,31,7,5,-1,2
6795616237,15,-13,7,-2,-3,2,0,2
6795616237,5,-2,9,-11,-7,-2,-3,0
6795632673,-4,2,-10,-9,-6,-4,-1,0
6795632673,-12,-9,-1,-12,-3,-4,-6,-1
6795638789,-5,0,11,15,3,5,4,7
6795638789,-2,-16,-12,-21,-3,-5,-4,-7
6795647693,-3,-11,-4,0,1,7,-5,-2
6795647693,-3,15,2,13,-1,-6,-3,-1
6795661242,1,8,2,0,-4,-3,-5,1
6795661242,-11,27,-6,-12,-5,2,-3,-4
6795670192,-6,12,-1,-5,-1,4,1,-4
6795670192,18,36,6,-10,-15,-15,-8,1
6795676286,6,-35,-11,7,9,-3,-4,0
6795676286,-29,-17,-2,-12,5,15,5,-3
6795692639,-7,-19,13,10,-11,-15,-1,0
6795692639,0,-20,-15,-11,8,5,8,4
6795698812,2,-9,7,15,10,1,0,-1
6795698812,6,-28,-8,-7,-3,-7,-4,0
6795707660,-6,-18,-5,-9,5,-2,-1,-4
6795707660,-6,-5,3,-3,-8,-2,-4,-5
6795721272,1,-3,-8,-11,-9,-5,2,0
6795721272,1,-10,8,15,2,-1,0,-2
6795730186,-5,3,-2,-3,4,-1,-3,0
6795730186,5,3,-3,-8,-9,-4,0,-1
6795736343,5,6,-9,-4,3,1,1,1
6795736343,7,20,18,28,-2,0,-2,3
6795752662,-7,-5,-2,12,9,3,1,-3
6795752662,1,6,-3,-15,3,-1,0,-2
6795758647,3,6,-1,24,17,7,3,1
6795758647,8,9,-6,-11,-11,-15,-2,2
6795767660,4,8,-4,-7,-12,1,0,1
6795767660,-19,-27,7,4,-1,3,-3,-11
6795781730,-4,-1,-4,-6,-5,-4,-2,2
6795781730,-1,-19,-28,-23,1,-2,-3,-2
6795790162,6,10,12,5,0,3,11,4
6795790162,-1,10,8,0,3,-3,-3,1
6795796284,-4,-7,-5,-19,-19,-9,-4,-8
6795796284,-15,-11,14,19,8,3,0,-6
6795812653,2,-4,-27,-37,-18,-9,-3,-1
6795812653,-7,6,-5,3,5,1,-2,-3
6795818778,11,6,-2,-2,3,4,1,3
6795818778,5,6,8,12,0,3,3,2
6795827587,-12,10,12,7,-3,-18,0,-5
6795827587,8,-5,2,4,2,21,0,3
6795841323,0,8,7,-1,-2,-3,-3,2
6795841323,-4,-3,-11,-21,-6,1,4,-6
6795850146,7,-8,4,11,8,-5,-3,3
6795850146,4,1,-2,-1,2,7,-23,5
6795856176,-7,-5,-2,-10,-9,-4,6,-6
6795856176,-4,-14,-9,-9,-8,-8,2,0
6795871281,-3,-9,-5,-6,-3,-17,-5,-1
6795871281,5,5,1,13,3,10,3,-2
6795878808,3,3,3,0,-2,0,-20,1
6795878808,4,2,1,-6,3,6,4,4
6795887699,-4,-1,0,0,0,-3,-1,-2
6795887699,-6,-4,-1,0,-2,-4,7,0
6795901135,-7,-5,2,0,-3,-5,-1,-5
6795901135,-3,-4,-5,-4,1,3,-14,-2
6795910153,3,-3,-2,-1,-1,7,8,5
6795910153,1,0,3,5,0,-9,-4,-5
6795916169,4,10,9,0,1,2,-9,2
6795916169,-11,-27,-27,-7,-4,-6,19,-5
6795931283,-3,-1,4,5,-1,7,0,-1
6795931283,1,0,-7,-6,-2,-6,1,2
6795938805,-2,33,8,0,2,-1,1,-2
6795938805,6,-39,-8,-6,-3,0,-9,0
6795947704,-10,-3,1,3,-4,2,-6,-4
6795947704,-4,-47,-11,-1,-3,0,9,-1
6795961263,4,31,2,1,4,0,2,1
6795961263,9,22,17,1,4,3,2,4
6795970147,-21,17,-4,11,5,8,1,-7
6795970147,4,31,-3,-5,2,-8,-5,-4
6795976202,-22,-48,-10,-8,-7,-1,6,1
6795976202,29,27,2,-28,-15,-7,-8,8
6795991294,6,-18,2,12,10,3,0,4
6795991294,-14,14,28,35,-2,1,2,-5
6795998793,4,21,-17,-18,5,2,1,-3
6795998793,-11,1,-21,-28,-4,0,-2,-5
6796007688,10,9,16,25,-1,-7,-10,-4
6796007688,18,-1,-37,-34,0,1,7,7
6796021325,-12,-28,12,15,6,5,3,-2
6796021325,-6,-8,2,5,-6,-11,-14,-8
6796030189,3,36,4,2,2,5,4,2
6796030189,-15,-37,-1,7,-3,-4,-4,-6
6796044402,-1,17,-1,-3,1,-5,-3,-2
6796044402,0,10,-1,7,-1,2,3,0
6796051204,14,-15,-11,-23,-7,-1,-3,5
6796051204,-7,20,11,-9,-1,-2,1,-2
6796058787,11,-15,-10,8,-2,-6,1,0
6796058787,-12,19,12,33,10,0,-3,-2
6796067710,5,13,-19,-43,-16,3,5,-1
6796067710,-11,-11,-13,-19,1,6,-3,-2
6796081258,20,50,23,29,9,3,3,3
6796081258,-15,-10,-1,0,2,3,1,-2
6796090177,-9,-33,5,13,-2,-5,-5,-4
6796090177,9,4,-13,-30,-2,-8,5,-1
6796096213,-9,-15,-3,-9,-19,-10,-7,-3
6796096213,1,-10,5,5,0,-3,-4,-3
6796111279,-5,-24,0,3,12,11,3,1
6796111279,3,1,8,21,3,2,14,6
6796118770,4,-19,0,-17,-16,-6,-6,-4
6796118770,0,-18,-10,17,17,13,3,0
6796127637,-10,-10,-4,-5,-7,-6,-5,-5
6796127637,-6,-4,0,-12,3,4,-9,-4
6796141174,-2,-12,4,33,-1,-4,0,1
6796141174,-10,-2,-9,-33,-2,-18,-1,-4
6796150276,10,4,2,-4,-15,13,-7,1
6796150276,8,5,22,20,10,-7,-5,-1
6796156195,-3,-9,-10,8,9,-2,4,3
6796156195,-6,2,5,-5,-2,5,-1,-5
6796171296,6,16,-4,9,4,-7,-3,0
6796171296,-1,4,-3,6,-15,-9,-4,-2
6796187640,-3,4,5,-8,-6,-8,-5,1
6796187640,12,12,15,8,5,15,9,1
6796189107,-3,-3,-20,-5,5,-7,8,6
6796189107,5,1,-8,-15,-9,1,-8,-3
6796201109,-3,-4,-4,-7,4,8,5,-1
6796201109,6,4,10,24,0,4,0,5
6796210130,-6,-14,-6,-19,-4,-6,1,-4
6796210130,-5,1,-2,7,-2,-8,-1,-3
6796224446,-3,-7,-8,-10,3,6,0,0
6796224446,4,4,-1,-4,-10,-11,-8,1
6796238689,-3,4,3,-3,0,1,-2,-3
6796238689,2,5,4,12,3,2,0,2
6796247613,0,0,6,-6,-6,1,-2,-3
6796247613,-5,-8,-7,-2,3,2,5,-1
6796249056,-2,-12,10,10,9,3,-10,-3
6796249056,-4,-4,-3,4,0,-1,1,-2
6796261199,-3,-9,-4,-11,-3,-2,-5,2
6796261199,-4,-5,-7,-7,-8,-5,-7,-5
6796270224,-3,-5,-3,-6,-5,-4,4,-1
6796270224,0,1,-2,-2,-5,-3,-3,-1
6796284463,1,-2,-1,0,1,-14,-2,-2
6796284463,0,-2,-1,-1,2,19,-2,3
6796291356,-1,-3,-6,3,-2,-9,-2,-3
6796291356,8,0,2,-3,-2,4,-11,1
6796307528,-8,-7,-9,-4,0,-3,5,0
6796307528,-4,3,1,1,-2,-7,-8,-6
6796309082,-4,-1,0,-5,-8,0,2,-5
6796309082,1,-6,-1,2,4,1,8,2
6796321243,2,4,-3,-3,3,9,-2,1
6796321243,2,0,-2,-4,-6,-8,-3,-1
6796330138,-2,8,5,1,0,3,-8,0
6796330138,-9,-10,1,7,-3,-5,-5,-6
6796344438,-6,4,-4,-12,-2,5,-3,-4
6796344438,7,-11,-11,-16,-5,-8,-4,-2
6796351280,11,15,3,18,12,2,6,3
6796351280,-8,11,-4,-1,-5,-2,-2,0
6796367561,-7,-2,-2,-5,-3,2,1,-1
6796367561,-5,-12,5,15,1,-4,1,2
6796369140,9,-4,-2,-10,0,0,-1,0
6796369140,9,26,11,-9,-4,-1,-1,-1
6796381231,-16,-36,-23,7,6,3,-3,-10
6796381231,5,-9,-6,-3,-2,-4,-1,5
6796390129,3,21,3,-10,-8,-3,-2,0
6796390129,-16,11,7,17,4,1,2,-2
6796404461,15,11,12,-4,-2,-1,0,3
6796404461,-5,13,-16,-16,6,2,0,-4
6796411220,0,-4,2,21,7,4,2,-2
6796411220,9,-14,-16,-23,-2,-3,0,1
6796427614,-2,15,11,7,-6,0,-1,-2
6796427614,2,2,6,1,-8,-5,0,4
6796429095,-5,-13,-3,-9,-4,-5,0,0
6796429095,-19,-7,-4,3,3,1,-2,-4
6796441284,16,5,2,-2,1,2,2,2
6796441284,5,3,11,16,-2,-2,-2,0
6796450132,4,-1,-6,-15,-6,-2,1,-4
6796450132,-30,-20,-12,-12,-6,-3,-4,-7
6796464482,-8,-3,-2,4,7,-3,6,3
6796464482,-8,15,-1,-3,1,9,-13,-3
6796471255,7,17,2,-14,-19,-11,-4,0
6796471255,19,10,1,21,8,6,4,3
6796495109,-11,15,6,6,5,4,-4,-4
6796495109,1,-2,3,-11,-1,-5,1,0
6796496587,-7,-14,-9,10,2,-1,-2,1
6796496587,15,-5,-2,-7,-7,0,4,2
6796501121,0,-5,-1,4,-6,-6,-3,-3
6796501121,-6,-17,1,-16,5,-2,2,-3
6796510150,-14,-16,-2,3,-1,-1,-3,1
6796510150,3,-10,4,0,-1,-3,2,-3
6796524437,-2,-9,-6,-7,-3,6,-1,1
6796524437,-7,-15,0,3,-18,-7,-5,-8
6796531178,-1,7,9,7,-9,-10,0,1
6796531178,3,-11,-19,-31,18,1,-6,0
6796547508,13,5,-2,7,9,9,6,6
6796547508,-1,8,11,16,-4,-2,1,-2
6796549123,-1,-5,-8,13,4,7,3,-1
6796549123,-6,4,27,5,7,-6,-9,-6
6796561260,1,-10,-31,-13,-7,-3,0,2
6796561260,0,6,-6,-1,9,0,6,2
6796570122,4,6,0,-13,-7,-2,-6,0
6796570122,-1,13,16,13,-11,-6,2,-1
6796584484,-11,-17,-1,-9,3,3,6,-6
6796584484,3,7,12,-8,6,6,-1,0
6796591249,-10,0,2,-4,-1,1,-1,-3
6796591249,-4,-7,-20,-2,-12,-8,-9,-1
6796607368,10,-4,6,8,-6,-7,2,0
6796607368,-9,-30,-9,-8,-10,-13,-2,-5
6796613758,-3,-2,-7,-9,2,11,0,-3
6796613758,2,4,-3,0,0,1,2,2
6796621259,-2,5,10,5,-3,0,-2,0
6796621259,3,6,-4,-3,4,-3,-1,1
6796630161,5,-7,-6,-1,6,-2,2,-2
6796630161,-2,1,4,-4,-4,4,0,0
6796644428,7,10,-6,-9,-11,-5,-14,-1
6796644428,-4,1,0,14,9,10,15,1
6796651284,-5,-2,-2,3,7,0,-11,-2
6796651284,-1,-3,-1,8,1,-4,5,-1
6796667617,3,-4,3,-2,0,3,4,2
6796667617,8,1,-2,-2,-7,0,0,3
6796669141,-6,2,6,-3,-2,-4,1,-5
6796669141,7,0,1,1,-3,-4,-19,4
6796681237,-12,-13,-4,-3,-2,-2,-7,-8
6796681237,-2,3,-6,-1,-3,-2,-2,-5
6796690116,5,-10,-3,-1,0,1,6,5
6796690116,0,-11,-2,2,0,2,4,1
6796704462,-7,7,4,-1,-3,-6,-3,-6
6796704462,1,4,-9,-2,-4,-10,1,-1
6796711233,-7,-11,-2,-4,1,0,-7,-4
6796711233,8,-6,1,1,-3,-2,4,0
6796727587,2,6,0,2,3,2,-2,4
6796727587,3,3,3,2,0,-1,1,2
6796729093,-6,-11,-6,-6,-3,-5,-3,-4
6796729093,6,7,0,-1,0,5,7,0
6796741197,3,-2,2,6,-1,-1,1,0
6796741197,-8,-9,-14,-7,-3,-2,-10,-6
6796750090,5,14,4,-12,-6,-3,2,3
6796750090,26,33,23,26,3,2,0,8
6796764457,-46,-40,-18,-1,9,0,-4,-12
6796764457,-16,3,-13,-18,-4,1,-1,4
6796771183,5,-28,-7,4,0,1,-2,-3
6796771183,-2,14,2,-14,-2,-2,1,-4
6796787610,22,58,15,0,-7,-5,-3,4
6796787610,-1,14,6,1,-2,-1,-1,-1
6796789162,32,38,9,17,6,5,6,4
6796789162,-17,-79,-5,10,9,1,-2,1
6796801144,6,-59,-17,-25,-1,0,2,-4
6796801144,-38,24,-1,-7,-4,-4,-6,-9
6796810115,10,-8,13,4,-16,-10,-4,1
6796810115,10,6,-18,-10,7,-1,1,1
6796824189,-27,-14,-8,3,-6,-4,-3,-4
6796824189,28,-4,5,9,8,4,0,5
6796832597,-9,-2,3,8,1,4,1,0
6796832597,-2,6,-3,2,-7,-1,0,0
6796846865,8,3,3,-6,-4,-2,-3,2
6796846865,4,4,6,14,-5,-1,1,0
6796853714,-11,10,3,18,8,1,1,-8
6796853714,-1,12,-20,-39,-5,-5,-4,0
6796861114,-16,0,-1,15,3,3,-1,-5
6796861114,15,15,23,-4,-9,-9,-5,2
6796870117,-11,4,-25,-35,-5,-5,1,3
6796870117,-21,9,0,4,-2,5,4,-9
6796884435,17,10,4,0,0,-7,-4,2
6796884435,0,-22,-3,18,7,9,6,3
6796891187,-10,-25,5,2,-4,-3,4,0
6796891187,1,4,0,6,9,0,-4,-4
6796906902,1,10,8,2,0,3,0,-1
6796906902,9,-21,-2,-6,8,-3,-1,0
6796913799,-11,0,-15,-6,-11,-3,-5,-3
6796913799,-5,-16,-1,-10,-18,-9,-2,-2
6796921252,2,-2,4,15,7,0,2,-1
6796921252,3,-8,-8,-19,-2,-2,-3,-2
6796930097,-5,-7,-2,27,0,-13,-3,-2
6796930097,-9,-9,0,-16,-1,5,-14,-8
6796944356,8,12,-5,-25,-4,1,2,5
6796944356,-17,-7,5,11,5,0,10,-3
6796951306,-2,7,10,12,0,10,-1,-1
6796951306,0,-2,8,22,6,-6,2,1
6796966951,10,10,-13,-29,1,-8,-5,2
6796966951,-11,-6,-7,7,-9,-9,-7,-4
6796973762,1,7,-5,-7,8,7,0,-1
6796973762,0,5,11,11,-7,4,4,-1
6796990110,3,7,3,-10,-9,3,2,3
6796990110,11,8,-9,1,5,-4,-6,4
6796991639,-10,4,-2,-22,-15,-5,-4,-6
6796991639,-3,9,5,-1,0,2,8,-2
6797004436,6,3,-2,6,0,5,1,3
6797004436,3,-3,-8,-4,6,1,-2,-1
6797011256,-8,-1,-2,-20,2,2,-2,-1
6797011256,2,2,-4,19,0,-6,-4,0
6797026861,3,-1,13,7,-4,-6,4,-4
6797026861,-3,2,17,34,7,-1,-2,-3
6797033774,6,4,-30,-52,-3,-5,-4,-1
6797033774,-6,-11,-6,9,5,-3,2,-1
6797050136,0,-9,-2,10,-1,4,1,-2
6797050136,-6,3,-3,-11,-10,2,-2,-3
6797051597,6,-4,10,9,4,-2,0,1
6797051597,1,6,-4,0,-2,-3,-3,2
6797064882,-2,2,1,-1,-6,-4,-5,-3
6797064882,1,-9,1,-5,-5,-1,0,1
6797072607,2,-1,1,7,0,-12,-2,1
6797072607,-5,-10,-11,-11,-2,11,2,-1
6797086909,-6,0,6,6,4,-3,0,0
6797086909,6,2,-3,-12,-5,4,2,-1
6797093639,-10,-8,2,8,3,-2,-6,-4
6797093639,3,-2,1,-5,-2,-3,0,0
6797110086,4,11,-1,1,2,3,10,5
6797110086,-4,-3,-4,-2,-2,-8,-9,2
6797111549,-11,-12,1,2,1,9,11,-2
6797111549,6,-7,-4,-5,-2,-1,-5,-4
6797123639,-12,-2,-7,-3,-7,-4,-9,-2
6797123639,3,-5,-8,-7,-4,1,0,-4
6797132640,2,9,7,8,6,3,3,4
6797132640,1,6,3,-4,-2,3,-3,-2
6797146930,9,11,6,4,7,-4,6,0
6797146930,3,4,-5,-6,-2,-4,-1,-1
6797153659,-27,-54,-8,3,-7,4,-7,-7
6797153659,-10,32,-2,-7,-8,-9,-2,-1
6797170049,0,-25,-16,-12,4,4,0,-5
6797170049,-10,7,1,3,0,4,0,-2
6797171596,24,-11,7,13,6,-4,1,6
6797171596,2,18,-5,-21,-9,-8,-5,-1
6797183775,-18,-11,-1,5,-9,-4,-8,-1
6797183775,12,-7,10,7,3,-1,0,-1
6797192603,5,36,-6,3,1,-1,-2,-1
6797192603,6,-34,9,-1,8,3,1,1
6797206801,2,13,1,15,2,-1,-3,-6
6797206801,3,-22,-7,-8,1,5,2,2
6797213721,4,55,10,-10,-12,-4,0,5
6797213721,-23,-41,-11,3,0,-5,-8,-5
6797230033,11,7,-6,-4,2,1,-2,0
6797230033,-8,15,7,-2,-1,2,1,-1
6797231533,15,-11,-24,-28,-4,-2,-1,-2
6797231533,-7,10,4,6,-7,-3,0,-1
6797243744,-9,-20,10,3,1,4,1,0
6797243744,7,27,-4,0,-7,-4,-1,-3
6797260111,9,0,1,-3,-3,-4,-4,5
6797260111,10,17,-4,-11,-5,-5,-1,1
6797266966,1,-8,4,24,-1,0,-3,-1
6797266966,-9,12,-1,-8,7,-11,-3,-2
6797273645,-14,5,2,1,2,26,1,-6
6797273645,4,-6,-6,-1,-4,-11,-4,0
6797289961,-3,12,4,-11,-3,1,-1,-3
6797289961,11,-11,-1,11,0,3,-4,-3
6797291587,-3,-16,-2,4,13,-2,2,5
6797291587,-2,-12,-3,-3,-5,1,-4,0
6797303758,-2,1,-7,-11,-8,-12,-8,0
6797303758,-16,-20,1,-13,-6,3,3,-5
6797312569,-7,-16,12,58,7,-6,-4,-8
6797312569,10,6,-15,-13,22,12,7,3
6797326911,-3,-9,7,-1,-5,-7,-2,-3
6797326911,-5,-10,-11,-23,-11,-6,1,-1
6797333708,7,8,6,-10,-16,-19,-7,-1
6797333708,2,2,9,16,-1,1,6,-2
6797350085,2,1,4,6,9,7,4,0
6797350085,-4,-3,-11,-2,-9,-3,-2,1
6797351534,-4,-11,1,-9,8,3,3,1
6797351534,-6,-6,0,6,-1,-2,0,-4
6797363696,-6,-1,5,-8,0,7,-2,-2
6797363696,0,-3,-10,-4,7,4,0,2
6797378730,5,3,8,-31,-10,-7,-2,0
6797378730,-9,0,-1,25,-3,-16,-7,-2
6797386911,5,4,1,9,-1,15,6,-2
6797386911,-3,-2,1,3,-1,-13,-5,3
6797393720,-5,-3,-14,-17,-8,0,-2,-4
6797393720,-2,1,5,-14,-5,0,-3,-3
6797410071,8,3,-3,-1,-3,-4,-1,1
6797410071,4,6,6,2,-7,-2,-1,4
6797411548,-7,-5,-1,4,9,4,1,-4
6797411548,0,2,1,15,4,3,1,0
6797423741,-1,-5,-5,-10,-1,-7,0,0
6797423741,0,-3,3,9,-1,5,-1,-1
6797432613,-3,-1,-15,-4,-5,-4,-4,0
6797432613,3,0,-2,-3,-2,5,1,1
6797446932,2,13,-5,-7,-6,-9,-5,-2
6797446932,9,9,9,7,-1,-6,-2,3
6797453726,-1,4,3,7,6,8,5,-1
6797453726,-4,-1,-7,-9,-1,2,-2,-4
6797469972,-6,-11,-4,-6,-5,-5,-2,0
6797469972,-7,-2,-4,3,2,5,3,-4
6797471575,3,2,5,4,-4,1,-5,-3
6797471575,0,-4,-1,-5,-3,-9,-11,2
6797483760,-5,-5,-4,0,2,8,11,-1
6797483760,-1,0,0,-1,0,-3,6,-2
6797492594,-20,-12,-5,-2,0,6,-15,-12
6797492594,5,-2,5,-3,0,0,12,13
6797506928,9,-5,-4,-4,-4,-9,-8,0
6797506928,-6,11,-3,-3,-1,-9,-10,-3
6797513698,3,-5,-3,0,-1,16,30,4
6797513698,-5,0,0,-3,-3,3,-4,-6
6797530051,1,31,3,2,1,2,2,6
6797530051,2,-5,4,0,-4,-2,3,-7
6797531547,-3,4,3,3,-1,-13,-16,-3
6797531547,-20,-18,-12,-8,-5,3,-4,-8
6797543703,8,26,4,-1,1,-2,4,2
6797543703,-11,-65,-15,0,-3,2,-6,-1
6797552603,20,27,15,-8,-2,-3,2,6
6797552603,-16,-36,-28,-17,-14,-5,-2,-5
6797566946,-15,14,11,10,8,-2,-4,-9
6797566946,5,-2,-9,5,-1,1,-2,-1
6797573704,-9,-22,-23,-18,-5,-6,-2,5
6797573704,41,6,19,17,-3,-2,4,1
6797590084,-22,-49,-14,-32,11,5,-4,-4
6797590084,-25,19,21,4,-8,7,1,-5
6797591606,6,-32,-3,18,13,0,5,4
6797591606,17,50,18,-2,6,-1,-3,0
6797603758,-15,5,-16,0,-11,-8,-5,-3
6797603758,-1,28,-8,-6,-1,3,1,6
6797612606,-12,-10,7,14,-11,-12,-8,-12
6797612606,-7,-19,-2,-12,-3,-2,-2,0
6797626876,16,18,-5,-7,11,9,4,-1
6797626876,10,22,6,7,14,7,6,5
6797633682,7,113,14,-2,-7,-3,-3,-1
6797633682,-4,-23,-6,5,-2,0,-3,1
6797649871,-10,-29,3,2,-14,-6,-4,-2
6797649871,0,-8,-11,-13,0,-2,-2,-5
6797656256,-7,-19,3,10,5,-6,3,1
6797656256,7,26,8,5,3,11,3,3
6797663736,-4,18,-13,-17,-13,-5,-2,3
6797663736,3,3,2,4,-1,-11,-3,-3
6797672617,10,-5,-9,-11,3,11,0,-2
6797672617,-20,2,6,31,-3,-8,0,-2
6797686914,-9,-22,2,-29,1,1,-9,-1
6797686914,11,-17,-6,-2,-1,-6,0,-1
6797693633,1,-32,-5,2,7,8,4,-2
6797693633,-11,-15,-14,-17,5,1,-2,-4
6797710068,-3,-22,27,59,14,6,2,-2
6797710068,4,-14,2,-31,-18,-2,-1,2
6797711540,-14,-8,-14,-13,-9,-11,-9,-3
6797711540,1,-5,5,14,6,1,2,-3
6797723705,8,1,7,7,-15,-10,-1,0
6797723705,5,7,-15,-26,12,7,1,2
6797732651,-7,-13,3,12,-7,-7,-4,-4
6797732651,-3,2,-10,-26,-8,0,-2,-1
6797746921,5,-6,-7,13,-3,-10,-1,-1
6797746921,-2,2,2,-7,13,11,10,2
6797753654,-4,-4,4,8,4,8,2,-2
6797753654,-1,3,1,-20,-11,-7,-2,-3
6797769417,8,4,1,13,3,-2,-5,1
6797769417,-4,-8,-5,15,-10,-6,-9,0
6797776212,-2,-9,0,0,2,-6,0,-1
6797776212,-9,-8,3,-3,1,9,-1,-3
6797791881,4,-6,-13,7,-1,-5,1,0
6797791881,0,6,11,13,6,3,2,-1
6797792565,7,-4,-25,-38,-6,-5,-4,3
6797792565,-1,0,8,7,-4,-3,-3,-2
6797807596,1,0,-14,-12,-2,-1,-1,1
6797807596,-11,-6,-5,7,-2,0,-2,0
6797813707,-2,-8,3,-12,-4,-3,0,-2
6797813707,7,6,2,1,-7,-3,1,2
6797828726,3,14,-4,4,9,1,-1,3
6797828726,-7,4,-2,6,-4,-3,-3,-3
6797836201,0,2,2,-2,-6,-6,-3,1
6797836201,-7,-6,-9,0,2,6,3,-3
6797851875,7,-2,9,0,-1,2,0,1
6797851875,2,-1,-4,-2,0,1,-3,-3
6797852548,4,8,5,14,7,-2,0,3
6797852548,4,7,-1,3,4,6,7,2
6797867576,6,-4,-6,-12,-4,13,5,0
6797867576,-5,-1,1,-3,-10,-18,-8,-6
6797873733,-9,-9,1,0,-6,5,-19,1
6797873733,6,-1,1,5,5,-7,37,4
6797888734,-5,-6,-7,-14,-8,6,-10,-5
6797888734,3,-2,0,4,0,-4,2,-2
6797896139,-5,-2,-3,3,-2,-1,-5,-6
6797896139,0,-4,-6,-7,-1,1,-6,-2
6797911752,-1,3,6,2,0,-4,1,2
6797911752,-6,3,5,-1,-2,1,6,-2
6797912592,2,-2,4,2,0,-1,1,-3
6797912592,6,0,-1,0,-2,-4,-12,3
6797927516,-7,-6,-3,-7,-1,-1,8,0
6797927516,-7,-3,8,4,-3,-1,-11,-3
6797933697,-10,-10,-10,-10,-5,-2,2,-5
6797933697,5,13,4,-6,1,1,-6,-3
6797948524,-1,-19,2,0,-4,-4,-3,-3
6797948524,-10,-11,-6,1,2,4,0,2
6797956104,3,12,10,21,4,0,3,0
6797956104,-14,-15,-6,5,0,-2,-6,-7
6797971822,9,-26,-25,-24,-5,-4,-3,0
6797971822,33,41,15,-10,-4,1,0,8
6797972586,-33,-2,-6,0,-7,-2,3,-2
6797972586,-1,40,5,0,6,1,-7,1
6797987535,-12,-5,9,25,1,3,1,-4
6797987535,12,-12,-13,-35,2,-2,-5,-2
6797993555,13,-1,-10,-9,-5,0,3,1
6797993555,-13,-11,-1,3,-3,-5,-5,0
6798008646,-11,-5,11,5,-7,-4,-1,-2
6798008646,-3,35,4,25,3,-1,0,-1
6798016199,9,-4,-1,-4,2,-1,-1,1
6798016199,16,17,3,-3,-7,-4,-6,2
6798031812,-8,-17,-3,-1,1,-3,-3,-7
6798031812,5,-1,-1,2,4,3,2,3
6798032547,-10,-21,2,6,1,1,3,-3
6798032547,-21,-5,-5,1,1,4,1,-2
6798047566,7,-17,-2,-10,-8,-7,-5,-1
6798047566,-1,21,-6,-13,-14,-8,-4,-5
6798053578,-7,10,0,3,6,-9,0,-3
6798053578,16,-12,-7,-8,0,3,-5,-2
6798068733,-2,19,5,-3,-16,4,-4,4
6798068733,-14,-32,-4,9,11,10,6,-7
6798076166,20,16,1,-2,3,-3,-2,4
6798076166,-10,-11,-7,-2,5,-4,-2,-2
6798091884,1,10,-4,-9,6,0,6,2
6798091884,-4,-12,16,-5,-22,-13,-7,-1
6798092564,3,-9,-18,-14,2,6,3,-3
6798092564,-15,-26,-1,7,4,-1,-1,-3
6798107593,1,15,4,-9,-8,-6,-3,-3
6798107593,-5,-19,-1,29,14,5,1,-2
6798113685,0,2,2,-15,-2,5,2,-1
6798113685,5,-3,3,11,-6,-6,-4,0
6798128735,3,12,14,13,5,5,2,1
6798128735,-5,-14,-21,-5,13,6,0,-1
6798136237,11,7,8,13,-8,-8,-2,2
6798136237,2,-1,-3,-24,8,-3,1,1
6798151875,-4,8,-5,-21,-6,-6,-4,-3
6798151875,0,-2,7,16,2,1,1,0
6798152569,-6,-4,4,3,-2,-1,-4,-4
6798152569,6,14,20,5,-6,7,6,-2
6798167588,-11,-2,1,45,18,2,-3,-2
6798167588,6,3,-27,-51,-10,-1,-1,3
6798173701,1,-9,9,13,-19,-4,-4,1
6798173701,0,7,1,11,11,-13,-7,-3
6798188688,2,19,-2,-17,-7,4,-1,-1
6798188688,-13,-22,16,36,11,5,-2,-6
6798196135,-2,-6,-8,-9,6,-9,-2,-1
6798196135,0,-6,-8,-11,-21,-5,0,-2
6798211837,3,3,0,-1,7,2,2,2
6798211837,-3,7,-3,-14,-14,-10,-5,-3
6798212522,2,6,19,-5,-9,1,0,-1
6798212522,1,0,-9,-1,2,-5,-4,2
6798227534,-4,-10,-9,-5,7,9,5,-1
6798227534,3,6,7,5,-5,-4,3,0
6798233716,2,1,-2,-1,10,17,4,2
6798233716,4,2,-7,-2,0,-3,-2,1
6798248656,-1,9,-1,0,-12,-5,1,-2
6798248656,4,-4,1,2,-3,13,-3,1
6798256161,-1,8,0,3,4,-13,-18,-3
6798256161,2,-14,-5,-2,-2,-1,5,1
6798271831,4,3,5,-5,-1,-15,-7,-2
6798271831,0,7,-2,-2,-1,6,11,1
6798272524,4,-4,-7,-7,-2,6,-13,1
6798272524,-1,-8,3,0,-4,4,11,-4
6798287547,-6,-8,-6,0,5,4,2,1
6798287547,-6,-5,-2,-3,-2,-12,-7,-1
6798293654,-3,-10,-5,-3,-3,5,7,-1
6798293654,0,-4,1,-3,-2,-1,17,-2
6798308628,5,0,3,0,2,0,-15,0
6798308628,-3,-5,-6,-3,-5,-10,-8,-3
6798316239,2,2,1,-1,0,4,-3,7
6798316239,-8,-17,-10,-4,0,3,21,-5
6798331880,-16,-11,-6,-6,-2,2,1,-4
6798331880,11,4,7,2,1,-2,-6,5
6798332539,-9,-13,-10,-7,-8,-9,0,-4
6798332539,4,-19,-7,2,-1,3,-15,-1
6798347547,22,9,12,7,2,-1,-1,1
6798347547,-23,-3,-13,-10,-6,-6,0,-8
6798353611,-16,20,-5,-1,4,-5,2,-6
6798353611,-12,9,-17,-20,-12,-1,-13,-1
6798376857,4,-47,-8,22,15,6,8,-1
6798376857,33,24,14,-5,-5,-1,-3,6
6798377521,6,69,36,21,16,10,11,8
6798377521,-32,-26,-22,3,-5,-1,-14,-13
6798391746,9,33,1,-17,-1,-8,-6,2
6798391746,3,3,-26,-6,-8,-4,2,-1
6798392637,-4,-70,4,-5,2,-3,-2,-6
6798392637,-17,-51,7,8,1,3,-4,-1
6798407533,-12,101,11,-10,-5,-4,-3,-3
6798407533,7,3,12,6,0,1,0,2
6798413659,-1,-54,-28,-21,-13,-7,-2,-4
6798413659,9,29,32,35,7,2,-4,2
6798428715,-8,-67,-35,-29,4,4,1,-4
6798428715,-4,5,23,8,2,1,-1,2
6798436115,0,32,-17,-31,-5,-6,-2,-3
6798436115,11,-3,18,31,1,1,-3,2
6798451770,1,-3,-9,-5,-9,-3,0,0
6798451770,3,1,1,-10,-7,-3,-1,-3
6798452649,-8,6,-3,26,1,0,8,2
6798452649,5,48,9,3,20,4,1,2
6798467545,3,13,10,-1,-1,8,0,3
6798467545,-10,-5,-9,-4,-9,6,0,-4
6798473592,0,9,2,4,3,-4,-1,-2
6798473592,12,6,-12,-27,-8,-5,-4,-2
6798488601,-8,-18,6,22,3,-9,-1,0
6798488601,-9,-28,-1,1,7,-6,6,-1
6798496187,9,-11,-1,6,0,6,-8,-3
6798496187,4,1,-1,-18,-1,3,6,7
6798511718,-5,-44,-16,-19,-12,-10,-3,-3
6798511718,0,6,-4,1,-4,-2,-3,-2
6798512486,-4,-8,1,-5,1,-3,2,-4
6798512486,5,-5,-2,-14,-8,-3,-3,2
6798527613,2,9,12,41,7,3,1,-1
6798527613,-16,-23,-28,-44,-6,-2,-4,-5
6798533607,1,-8,-7,12,-4,-2,-1,-1
6798533607,1,8,7,-25,-16,-2,-5,-1
6798548663,-5,-8,-9,27,14,6,2,-3
6798548663,5,12,17,27,14,8,5,4
6798556158,-3,-14,-2,-22,-19,-8,-4,-2
6798556158,-1,-3,-1,13,6,0,-2,-2
6798571762,-4,-9,-3,-3,-5,10,11,1
6798571762,-3,-20,2,7,9,-3,-3,-1
6798572453,-1,1,-16,-30,3,5,1,-1
6798572453,0,8,20,30,0,-4,-3,0
6798587566,-3,-2,-12,-25,-5,-10,-6,-5
6798587566,-5,-7,1,29,-3,-11,-9,-3
6798593608,4,8,15,24,3,10,6,2
6798593608,-6,0,-5,-3,5,-6,-5,-5
6798608577,3,-3,6,5,-3,0,2,0
6798608577,-3,-1,-3,-13,-11,-2,-3,-2
6798616207,1,9,1,-4,-10,-13,-7,-2
6798616207,0,10,-14,-13,3,2,-1,-3
6798631769,0,1,5,1,5,12,4,2
6798631769,0,1,-1,-1,5,3,7,-1
6798632610,1,-1,0,2,2,-13,0,1
6798632610,16,14,2,-4,-9,5,-9,-1
6798647501,-12,-5,6,-12,-10,-5,-12,-5
6798647501,-3,-6,-7,-5,1,3,6,1
6798653714,-2,-2,-1,7,-1,-7,7,4
6798653714,2,-1,-4,-7,-6,-14,-21,-8
6798668664,2,4,-3,-6,-3,6,35,7
6798668664,-2,-1,3,3,2,-1,-7,-2
6798676136,-11,-8,-2,1,0,11,-13,-4
6798676136,3,-7,-7,-3,-2,-9,21,4
6798691070,5,4,1,-4,-3,1,-38,-2
6798691070,-8,0,-1,0,-3,-4,-8,-3
6798698635,-9,-3,2,-1,1,0,14,-3
6798698635,-3,3,-3,-3,0,3,-8,-3
6798707545,6,8,0,-1,-3,-10,-5,-1
6798707545,17,15,3,-2,-6,2,3,6
6798713617,7,3,-1,-6,-2,0,-10,-4
6798713617,-15,-12,-10,4,9,6,8,1
6798728655,0,14,12,10,1,-2,4,-2
6798728655,14,9,-4,-8,0,2,1,0
6798736149,-33,-3,-9,5,-1,-2,-2,-4
6798736149,-3,-18,-5,-7,-9,-3,-1,-1
6798751175,5,-8,-9,-26,-8,-7,-3,-1
6798751175,-10,23,17,30,8,0,-4,-4
6798758604,8,40,-13,-11,3,4,1,1
6798758604,3,-23,-7,-3,-1,0,3,1
6798767541,-6,-6,-2,-12,-6,-5,-6,2
6798767541,10,7,-9,-25,-17,-6,-5,-4
6798773649,-12,-27,-3,24,8,2,2,-1
6798773649,-10,0,-1,-16,-2,-4,-3,-1
6798788667,4,23,19,19,-3,-4,-2,-5
6798788667,17,-25,-22,-6,4,5,3,1
6798796162,22,30,6,-23,-7,-2,-1,3
6798796162,-43,12,1,-10,-5,-1,-3,-4
6798811101,-13,-44,1,15,4,-2,-1,-8
6798811101,-8,-7,0,-2,2,0,0,3
6798818679,23,-9,0,17,0,0,-1,2
6798818679,5,15,4,7,-1,-1,0,0
6798827599,-14,-17,-11,-13,3,2,5,-2
6798827599,-3,22,5,-6,-4,-4,-5,-4
6798833632,8,-6,-2,-11,-13,-9,-3,0
6798833632,5,3,9,15,2,6,0,1
6798848680,-1,18,-4,-24,-6,-13,-9,-3
6798848680,-4,-22,-2,3,-1,13,6,3
6798856130,-5,4,1,3,10,2,4,0
6798856130,2,13,3,-3,-14,0,-7,-11
6798871158,3,-10,-14,-3,5,-1,1,4
6798871158,-11,0,2,-5,-4,-4,-13,-1
6798878683,-1,-10,1,6,3,1,4,-2
6798878683,23,-5,7,6,3,-9,2,3
6798894327,-28,-21,-4,2,-2,9,-2,-9
6798894327,0,-12,-7,-10,-1,-6,3,0
6798895033,-12,-11,6,14,-15,-2,-3,-1
6798895033,2,-13,-12,-2,19,11,3,1
6798908646,17,9,6,-3,-12,-10,-4,3
6798908646,-10,-1,-7,-11,2,-3,3,0
6798916044,5,4,16,45,7,7,3,1
6798916044,-3,-11,-16,-18,8,-1,1,-1
6798931153,4,3,-4,-9,-3,0,1,3
6798931153,-4,-4,-2,8,-6,-3,0,-1
6798938562,-1,-12,8,-2,4,-5,-5,-3
6798938562,0,8,13,10,-10,-2,-4,-1
6798962536,-7,-10,-17,-19,1,12,7,-1
6798962536,4,11,14,37,1,-5,-2,0
6798963188,-2,-18,-14,-13,7,-3,-3,0
6798963188,-3,-7,-4,5,-8,-2,1,0
6798968603,3,8,2,27,15,-1,-2,0
6798968603,2,6,7,-8,-3,1,0,0
6798976120,-6,6,-10,-20,-8,-3,-3,-1
6798976120,-6,-8,-6,3,-2,-1,-3,-2
6798991155,16,6,9,25,2,0,1,1
6798991155,-14,-7,5,4,2,0,2,-4
6798998688,0,1,4,-9,-4,2,-3,-1
6798998688,-3,1,-6,-12,0,-8,0,-2
6799014333,1,5,-3,-1,-1,-2,-1,-3
6799014333,-8,-20,-8,-1,4,3,-4,-6
6799015026,-9,-9,-2,-16,-10,-6,0,-4
6799015026,10,4,-2,1,-1,2,1,2
6799028577,-5,-1,-1,-2,-3,0,0,3
6799028577,-8,1,1,-5,0,0,-1,-2
6799036103,-3,-5,-8,-3,0,-5,-5,-4
6799036103,3,1,-1,-6,-5,19,-2,-1
6799051138,1,5,2,-6,-6,-25,-18,-5
6799051138,5,0,-7,-4,-1,-4,13,3
6799058674,5,-1,-6,-5,-5,4,-4,5
6799058674,-2,2,6,2,-1,2,0,0
6799074322,2,1,7,2,2,3,5,-1
6799074322,-4,-2,-2,-1,1,-2,-9,-3
6799075016,7,-2,2,0,2,-2,3,0
6799075016,-3,-6,-9,-2,0,-3,5,3
6799088708,4,-4,0,-1,1,-2,0,1
6799088708,-2,2,-4,-3,-2,-5,-5,1
6799096139,-7,3,3,-2,-2,3,3,-2
6799096139,3,-8,-3,-1,1,-5,-2,0
6799111183,-2,-1,-7,-4,-7,-3,-2,-2
6799111183,5,0,-1,-2,1,4,-1,2
6799118629,0,0,-9,-5,-1,-1,-3,-2
6799118629,2,4,4,2,1,-2,-2,-1
6799134265,-6,-5,-4,-7,-4,-3,1,1
6799134265,-14,28,10,9,0,1,-3,-6
6799135003,-19,-59,0,-15,-3,0,0,0
6799135003,0,12,-7,15,1,-6,0,2
6799148614,18,29,26,12,-8,1,-2,-1
6799148614,1,-5,-37,-26,8,2,-1,-5
6799156070,15,49,10,30,8,3,0,0
6799156070,-1,-45,5,0,-11,-4,-1,5
6799171112,-3,15,11,30,13,9,5,4
6799171112,5,17,10,1,-12,-7,-8,-9
6799178637,-9,-11,-32,-27,8,-4,-2,-3
6799178637,-4,24,4,-12,9,8,5,-4
6799194361,-12,-41,-7,38,7,1,0,0
6799194361,-8,-20,-1,-8,-8,-2,1,-1
6799194989,31,6,13,20,5,4,0,2
6799194989,-14,56,-1,-20,-6,-11,-7,-5
6799208657,7,21,-4,-22,-8,-2,-1,2
6799208657,3,-13,5,16,6,1,3,1
6799216119,10,28,2,-16,-13,-7,-2,2
6799216119,6,-19,0,3,-7,1,0,1
6799231144,-7,2,-2,-4,7,4,4,-2
6799231144,-6,-27,-11,0,4,4,-2,-1
6799238601,-4,11,1,-7,0,-1,-3,-2
6799238601,0,-4,-2,5,-14,1,4,1
6799254257,-5,0,-12,-25,-2,-13,-9,-3
6799254257,8,55,17,7,-2,3,2,2
6799254990,-17,-23,-8,-4,1,0,-12,-4
6799254990,3,3,3,5,1,4,7,-2
6799268539,-6,4,-4,-14,-9,10,2,-2
6799268539,19,-10,-6,-10,-2,-3,4,8
6799276134,2,5,19,30,8,-8,4,2
6799276134,19,-8,-15,-19,13,-7,-16,1
6799291135,-29,-28,-6,2,-15,3,-4,-11
6799291135,-14,-25,14,18,-3,-6,-1,-5
6799298602,14,2,-6,3,-4,1,2,3
6799298602,-10,11,3,-50,-3,-3,-1,-2
6799314206,-1,-21,1,24,13,-6,-2,-5
6799314206,4,5,-7,-22,-8,-1,0,2
6799315018,-5,-4,6,8,0,-1,3,-1
6799315018,2,-11,-5,18,10,0,3,0
6799328648,2,13,9,-14,-10,-5,-2,0
6799328648,-3,-3,-2,-1,-2,-3,-1,0
6799336038,-1,-6,0,-15,-6,-4,-4,-2
6799336038,-8,-3,4,24,5,0,-2,-4
6799350997,-9,-11,-10,-31,1,4,-1,-2
6799350997,6,-8,-4,18,7,-1,0,-1
6799358466,-3,-7,2,-23,-7,3,2,-2
6799358466,2,2,15,2,-12,-8,-4,0
6799374181,-14,-2,-16,21,2,-9,-6,-6
6799374181,7,-10,-5,-14,-4,1,-3,1
6799375004,-6,8,-1,4,4,-4,0,1
6799375004,-5,4,4,11,-2,11,3,-1
6799388584,21,11,1,-15,-3,-2,1,3
6799388584,-19,-6,0,-6,-4,-1,-3,-3
6799396065,3,-2,2,3,-8,-6,-2,0
6799396065,6,2,-16,-8,-2,-10,-6,-2
6799411088,1,1,-1,1,5,5,9,2
6799411088,6,7,1,6,1,-6,-4,-6
6799418614,-4,1,-1,-1,-5,5,-1,3
6799418614,-6,-14,-11,0,0,-5,-2,-1
6799434308,0,6,-2,-10,-6,4,-10,-3
6799434308,5,3,12,13,6,21,15,7
6799435020,-9,-8,-8,-8,0,-16,-20,-8
6799435020,1,-14,2,-1,-3,6,0,4
6799448655,11,3,-2,2,-4,-2,10,4
6799448655,-3,-7,0,-8,-5,-14,-8,-7
6799456158,-16,-2,-4,-1,-2,4,-29,1
6799456158,-9,-5,-2,3,-2,3,36,1
6799471115,7,-6,4,2,2,-2,-6,2
6799471115,-2,1,-6,-8,-1,1,-2,-5
6799478581,-5,-26,-12,-4,1,-5,2,-6
6799478581,7,14,4,6,0,-8,-11,-3
6799494285,-8,1,7,-3,-4,3,5,4
6799494285,-10,-11,-5,-4,-3,-7,-4,-5
6799494964,0,3,-2,0,-4,4,6,-2
6799494964,-2,-18,-1,1,-2,-5,-8,-1
6799508659,12,7,-1,3,-2,1,2,0
6799508659,1,-5,-8,-21,-5,-2,-8,-1
6799516159,0,-8,-6,15,5,1,9,1
6799516159,-24,-34,-20,-6,-9,-1,-7,-7
6799531109,6,23,5,-7,0,-3,-5,1
6799531109,-7,5,3,8,2,-7,-5,-4
6799538645,0,-18,-3,-4,3,10,11,-4
6799538645,3,19,0,-3,3,-3,-4,-1
6799554328,-7,-43,5,-10,7,4,0,0
6799554328,-11,29,14,20,-6,-5,-1,-2
6799554992,18,-31,-7,-33,-13,-2,4,3
6799554992,5,0,-14,-18,-7,-5,-9,-1
6799568713,-8,19,-9,-2,1,-2,0,-2
6799568713,8,18,3,8,-1,4,4,4
6799576173,-16,9,10,3,-5,-5,-1,-7
6799576173,-17,-6,16,9,4,2,1,-1
6799591014,26,16,1,10,-2,-1,0,-2
6799591014,-5,42,-18,-25,1,-3,0,5
6799599303,16,31,-2,18,9,9,6,2
6799599303,0,4,8,-10,-6,-4,-6,-2
6799614246,-8,-15,-11,2,-5,-3,0,-5
6799614246,8,-10,11,-3,-6,0,-3,-2
6799615062,-1,16,-6,-18,8,2,4,3
6799615062,9,22,1,7,-1,-2,-3,1
6799628610,-13,-15,-6,-17,-13,-3,-7,-5
6799628610,-4,18,-4,-8,13,1,3,-1
6799636098,-11,-2,-3,2,-14,-2,-3,-4
6799636098,-7,-21,2,14,13,-17,-8,-5
6799651014,4,11,-1,-7,-5,14,1,1
6799651014,-5,-43,-2,6,4,-2,2,-6
6799659328,-1,6,1,4,0,14,5,3
6799659328,0,-22,-9,-5,-6,-8,-9,4
6799673617,-2,-13,4,10,9,0,20,0
6799673617,3,-17,-8,-6,-18,1,-7,-1
6799681795,6,1,11,11,-9,-16,-2,-1
6799681795,2,5,-4,-17,-6,9,2,-6
6799688637,0,-4,-3,20,19,0,-3,5
6799688637,6,-21,1,-32,-4,3,3,2
6799696120,-10,-12,-4,21,8,0,0,-1
6799696120,-3,3,1,1,-15,-6,-4,-4
6799711091,0,2,1,-57,-14,-15,-7,-3
6799711091,-7,-17,-15,61,22,7,1,-3
6799719358,6,9,16,10,-8,-10,-7,-4
6799719358,11,21,-3,-9,5,12,8,5
6799733625,-8,-5,3,10,2,-1,-2,-5
6799733625,5,18,16,23,-8,-10,-4,0
6799741826,-7,0,-11,-18,2,-3,-5,-5
6799741826,2,7,-12,0,12,12,8,0
6799748632,8,19,15,22,-8,-13,-6,1
6799748632,-10,-13,-12,-49,-8,4,-8,-3
6799756159,-4,4,-8,8,-5,-4,1,-6
6799756159,-2,-7,11,14,9,6,8,0
6799771136,4,0,-14,-18,-10,3,-15,-1
6799771136,-2,-4,5,17,-3,-8,-1,-3
6799786775,-7,-4,-2,-9,-1,-4,-3,-1
6799786775,-1,-8,-6,-25,-2,-1,-4,-3
6799793633,-5,-6,2,18,5,0,6,2
6799793633,2,5,-1,-1,-2,-5,0,-2
6799801721,0,-7,-1,-8,0,1,0,1
6799801721,0,4,4,9,-2,-3,0,0
6799808642,-5,0,1,4,-3,-1,-3,-2
6799808642,-3,-2,1,-8,4,5,1,0
6799816107,0,10,-1,-7,1,-5,-1,-3
6799816107,-8,-15,-1,2,-1,0,-1,-1
6799831196,-1,-6,-4,-3,-5,10,-6,0
6799831196,-6,2,-1,-9,-5,-16,-5,-5
6799839329,2,-7,-8,-7,0,3,5,2
6799839329,-3,-3,-1,11,0,-8,-7,-4
6799853656,-8,2,-3,-7,-5,-8,-7,-6
6799853656,7,-3,-2,2,4,10,9,4
6799861707,6,2,3,4,2,7,-2,2
6799861707,-1,6,6,1,-2,-2,-1,-5
6799876686,-8,-8,-6,-3,2,-5,1,2
6799876686,10,-22,-12,-2,-1,2,-4,0
6799877473,-11,0,6,2,1,-1,-4,0
6799877473,13,11,3,3,0,0,0,3
6799891146,-3,-2,1,1,-2,3,-3,-1
6799891146,-1,-10,-6,0,-2,-6,0,-4
6799898573,-4,2,1,-6,-1,2,1,0
6799898573,-6,3,-2,3,-4,-3,-4,-1
6799913467,4,-4,-5,1,1,0,2,0
6799913467,-4,30,9,-1,3,3,1,3
6799921767,13,18,2,-1,-3,0,2,-1
6799921767,4,-77,3,6,0,-1,0,4
6799936777,8,72,-3,-14,-3,-8,0,-3
6799936777,-27,-21,-3,5,3,4,0,-5
6799937451,-2,29,-4,-15,-10,-7,-5,-5
6799937451,2,27,13,33,8,-1,4,8
6799951044,8,-45,-8,-16,-1,1,2,-1
6799951044,-2,7,-3,-15,3,0,0,4
6799959307,12,29,-15,-15,-14,-8,-6,-7
6799959307,1,59,4,28,-7,0,-1,-7
6799973586,-19,-93,-15,36,5,0,0,-9
6799973586,-50,-50,-27,-48,-2,-8,-7,-14
6799981763,-12,-11,-6,-8,1,1,6,9
6799981763,19,30,-3,-23,-6,-7,-4,0
6799996820,6,64,2,18,3,-3,-1,3
6799996820,32,-1,21,29,-8,-1,2,2
6799997488,-8,-62,-10,-14,3,1,0,3
6799997488,-19,8,11,10,-2,4,-1,-3
6800010998,5,2,7,-11,3,5,5,1
6800010998,-4,-12,-14,-7,-2,-2,-4,-1
6800019123,-3,-24,-1,12,9,1,1,-2
6800019123,1,35,0,-9,-1,1,-1,-4
6800033466,7,8,12,-11,-6,-4,-1,8
6800033466,15,24,-2,3,-7,-3,4,7
6800041649,-2,34,2,3,-3,-10,-5,-5
6800041649,-12,-4,-5,-10,-2,13,4,-2
6800056627,-12,-3,-10,-1,-3,2,4,-3
6800056627,13,-7,8,23,16,6,-13,2
6800057416,-9,-14,-1,-8,-1,0,16,-2
6800057416,-4,-27,-2,-4,2,-3,-6,1
6800070962,9,-4,15,5,-3,-5,-1,0
6800070962,-11,3,-8,-20,-6,-7,-4,-3
6800079157,3,-12,2,-1,6,4,-5,-5
6800079157,3,-10,-3,0,4,4,4,0
6800093456,-8,-26,-4,16,-1,-5,-5,1
6800093456,7,9,10,4,11,5,5,-2
6800101663,-3,4,-1,-12,-11,-4,-5,-2
6800101663,-1,-25,-7,-11,-11,-16,-4,-1
6800116618,1,7,0,-14,8,13,2,1
6800116618,-5,1,5,-1,-6,-7,0,-4
6800117425,7,8,-5,-5,2,-3,-5,2
6800117425,-1,-7,-2,48,13,10,4,1
6800130952,0,13,0,-28,-12,-11,-1,-1
6800130952,-5,-4,-3,-22,0,4,3,-1
6800139124,6,3,-1,5,-6,-2,-5,-1
6800139124,-3,0,-12,-16,-10,-16,-7,-6
6800153440,1,2,12,31,5,0,1,1
6800153440,6,16,-6,-12,-3,-1,3,0
6800161674,-16,-11,9,7,-1,6,5,-4
6800161674,-3,-9,-6,-18,3,-1,-5,-2
6800176594,-6,-4,-1,4,-4,0,-3,-3
6800176594,2,10,4,22,-4,-3,-3,0
6800177384,1,2,0,2,1,0,-4,-3
6800177384,3,4,1,-5,2,4,2,-1
6800190952,-9,-2,-7,-22,-2,-3,1,0
6800190952,7,-5,-2,10,2,1,0,2
6800199199,4,2,5,11,6,3,0,1
6800199199,-11,-7,7,-1,0,0,2,0
6800213454,-6,-6,-2,-5,-8,-10,-10,-7
6800213454,6,9,-2,0,-1,-3,0,0
6800221663,-7,-8,0,6,7,8,3,1
6800221663,6,-3,-5,-10,-8,-3,-4,-3
6800236611,-3,8,3,1,0,-4,1,2
6800236611,-6,-7,-16,-7,-13,16,-2,-4
6800237434,3,-3,2,4,0,-14,-7,0
6800237434,0,-10,-10,-8,-3,-3,-1,-1
6800250943,-4,-2,-6,-5,-2,3,-3,-3
6800250943,4,2,6,4,1,-1,8,4
6800259145,3,0,4,3,-1,0,-1,2
6800259145,-3,2,-5,-9,0,1,0,-3
6800273425,-7,-2,1,3,3,-9,-6,-4
6800273425,4,-5,1,1,-1,3,2,-1
6800281781,2,-1,-3,0,-1,0,-3,0
6800281781,1,-1,-1,-3,-1,-7,-1,-2
6800296752,0,-5,-3,2,1,3,1,0
6800296752,-4,-3,-1,1,-1,-6,-5,-3
6800297440,10,3,-9,-4,-3,3,0,1
6800297440,-1,-2,0,-3,0,-2,-2,0
6800310966,-11,-1,2,0,1,1,0,-1
6800310966,3,3,2,0,-2,-3,-1,2
6800319332,3,4,0,4,-2,-5,-6,-3
6800319332,-1,-11,-3,-7,-1,1,2,-1
6800333530,12,21,8,-1,-3,1,0,3
6800333530,-38,-46,-11,-11,-4,-9,-4,-9
6800341779,2,14,-10,7,-6,-2,-2,-3
6800341779,6,-12,-30,-2,5,0,-1,2
6800356779,19,62,17,1,1,2,2,3
6800356779,-3,3,-5,-14,-8,-1,-1,-5
6800357491,-31,-9,4,-9,-3,-3,-3,-6
6800357491,5,-33,2,-13,-9,0,-1,3
6800371039,-10,24,-4,26,18,3,3,-1
6800371039,11,-27,-4,0,-9,-8,-6,-2
6800379246,27,28,-16,-9,0,2,0,2
6800379246,-31,-25,28,46,4,2,3,-2
6800393687,14,-40,-30,-35,-9,-4,-3,1
6800393687,-24,-18,6,12,-3,4,-1,-4
6800402474,7,19,13,-4,4,-2,-1,1
6800402474,12,15,-6,-16,-4,-1,-4,-1
6800416102,0,-20,-2,14,-4,-1,-3,-3
6800416102,6,10,-6,-7,4,-6,-4,0
6800424966,-1,-9,7,-2,-7,-2,-1,3
6800424966,-3,26,3,6,11,4,2,-3
6800430983,-8,-25,-9,-17,-3,-4,-2,-4
6800430983,9,35,7,4,-8,-9,2,3
6800439946,-3,9,0,7,8,7,-6,-4
6800439946,-3,15,2,-1,8,10,4,-2
6800453606,-12,4,-6,-7,-10,0,-3,0
6800453606,3,11,1,0,3,-19,-7,2
6800462455,-2,-13,0,2,-5,5,-2,-1
6800462455,-3,-6,-4,-9,-2,-4,-7,-1
6800476023,3,-14,0,-6,-10,0,7,0
6800476023,3,10,1,13,1,0,4,1
6800485008,-14,-29,4,9,7,3,2,-3
6800485008,6,-1,-5,-18,-3,-10,-5,-2
6800491023,5,3,9,2,-10,-1,-2,4
6800491023,1,1,-17,-21,1,0,-2,-2
6800499961,-7,-12,-10,-9,6,-2,4,-3
6800499961,5,7,13,0,-19,-7,-1,2
6800513601,-4,1,3,38,21,2,-2,-4
6800513601,-6,-9,-7,-26,-21,0,-4,-4
6800522445,5,3,-4,1,3,-4,-1,3
6800522445,-4,8,6,4,0,-9,-6,-6
6800536134,-7,-10,2,-10,-5,-3,-3,-6
6800536134,5,11,11,4,8,5,0,1
6800544926,8,9,-2,20,-4,-4,4,2
6800544926,-5,-6,11,-17,-12,-6,-5,-5
6800551027,-13,-3,0,8,11,-2,-3,-3
6800551027,19,-1,-16,0,10,6,3,0
6800559969,-9,5,8,-11,-4,0,2,3
6800559969,-5,7,17,33,-12,-3,-2,-3
6800573617,0,-13,-42,-60,-1,0,-2,-3
6800573617,-23,-3,-8,12,0,0,0,2
6800582428,12,1,10,-7,1,-7,-6,-4
6800582428,-1,3,-4,6,-9,1,3,5
6800596113,8,-3,4,0,3,4,3,1
6800596113,10,7,26,25,8,4,2,3
6800604977,-10,-12,-36,-12,-10,-5,-3,-5
6800604977,12,25,9,4,11,7,2,5
6800611126,1,4,-6,1,-9,-10,-4,-2
6800611126,2,16,10,-8,7,5,0,1
6800626110,-5,-1,11,9,-4,-7,4,-2
6800626110,4,-12,-23,-15,5,14,-5,0
6800633595,-1,-4,4,2,1,-7,-6,2
6800633595,-6,3,11,9,-8,0,-2,-1
6800656774,-2,-7,13,3,4,-8,1,2
6800656774,-1,-4,2,3,9,4,-17,-1
6800657444,-1,-15,-23,0,-4,2,6,10
6800657444,-5,-8,20,-2,-5,-10,-8,-28
6800664922,9,-11,-14,-5,-3,14,5,8
6800664922,-10,5,0,-12,2,-9,0,3
6800679950,-4,-5,8,11,-3,3,-2,1
6800679950,6,-3,-16,-1,2,-3,3,8
6800681466,-3,-2,5,-5,-2,-2,-5,-9
6800681466,-3,1,5,1,-1,-14,3,1
6800693568,-11,5,4,4,1,19,2,-4
6800693568,9,-1,-11,-3,-2,-1,7,1
6800702519,6,2,0,-1,-1,4,0,7
6800702519,-8,-14,-16,-6,-2,-2,0,-2
6800716090,8,0,2,-1,-3,-10,-5,-10
6800716090,-1,10,1,-1,2,6,-4,5
6800724948,-7,-3,4,3,-6,2,7,3
6800724948,-5,-9,-12,-6,-3,-2,-7,-7
6800731020,-17,16,20,4,6,-3,1,-5
6800731020,4,-14,-10,-1,-5,-9,-7,-1
6800739968,20,9,4,-2,3,6,-4,3
6800739968,-21,20,-4,5,1,4,7,-7
6800753581,5,-54,-21,-22,-7,-3,-2,1
6800753581,28,100,24,26,9,0,-3,5
6800762455,-55,-82,-24,-10,-12,-11,-5,-15
6800762455,22,-30,-25,-42,-13,-4,-3,2
6800776066,-15,-7,8,35,12,4,1,-1
6800776066,31,89,21,7,-8,-1,3,3
6800784944,-90,-71,-32,0,15,4,-7,-14
6800784944,21,20,-20,-32,-9,-4,-3,-6
6800799951,8,4,2,1,-9,-8,-3,0
6800799951,-19,-34,11,19,-7,3,1,1
6800801475,25,46,13,-13,13,-4,1,1
6800801475,-7,-39,9,11,4,7,5,1
6800813500,24,27,13,-1,2,2,2,3
6800813500,-5,-61,-18,-7,-6,-3,-5,-3
6800822450,3,20,11,-4,-11,-7,-6,-3
6800822450,-3,-18,-4,13,12,7,11,4
6800836031,9,34,0,-21,-9,-1,-4,-2
6800836031,-19,-14,-6,-1,6,1,0,-5
6800844970,13,27,1,2,-5,-1,3,8
6800844970,2,44,4,5,7,-9,-2,-5
6800860014,-4,18,1,6,-11,5,-6,0
6800860014,-15,-14,-12,-15,4,-16,0,1
6800861462,14,4,-2,5,10,23,-3,-6
6800861462,1,-11,4,8,-13,-8,1,-1
6800873558,2,-28,4,1,3,-9,-13,-2
6800873558,-13,-48,-15,-16,-3,8,30,3
6800882460,6,-2,6,-17,-1,-5,-1,-2
6800882460,-4,-12,0,15,16,12,6,3
6800896043,-1,-2,24,9,-1,4,-3,-2
6800896043,-2,-18,-50,-64,-2,3,-9,-1
6800904948,12,14,21,36,-16,-13,0,4
6800904948,-27,-17,-5,-31,-19,-4,-5,-13
6800919904,-3,-13,-13,33,15,-3,7,1
6800919904,4,-5,-6,-18,-4,0,-7,-2
6800921469,8,15,12,3,1,5,5,3
6800921469,10,17,-4,53,-10,-8,-8,2
6800933484,-14,-19,-34,-73,7,0,2,-7
6800933484,-17,-2,15,34,15,5,-2,-7
6800942546,-5,-14,-23,-31,-4,-4,-8,-4
6800942546,22,27,41,68,-15,-6,1,6
6800956084,-2,-5,-39,-77,3,-1,2,-2
6800956084,-2,9,-3,16,-15,1,-3,3
6800964941,3,5,-10,-5,9,-2,-2,-1
6800964941,-1,-1,-5,-35,-5,0,-1,-1
6800979891,-4,4,9,58,15,3,7,1
6800979891,-2,-7,4,3,0,4,-6,-3
6800981396,7,8,6,2,-9,-4,2,2
6800981396,-2,-2,-17,-12,3,1,1,1
6800993569,10,22,5,-6,-14,-5,-3,2
6800993569,-2,-7,-4,0,4,-4,3,1
6801002509,1,7,5,10,-11,-5,-14,-2
6801002509,-9,-10,-8,-28,7,4,0,-3
6801016069,-1,0,6,10,-4,-2,4,1
6801016069,0,-1,-1,6,-2,1,-4,-1
6801024952,-3,-6,-9,-8,-4,-3,-1,-2
6801024952,0,-3,-3,-4,9,-1,1,0
6801039934,-4,-2,6,8,-7,-2,-3,-3
6801039934,-1,-10,9,-1,-7,-4,-8,-2
6801041455,1,-7,-5,3,3,-3,2,-1
6801041455,-5,-1,0,-7,2,-7,-4,-3
6801053510,-3,0,9,11,-5,2,-1,2
6801053510,0,-3,8,-4,3,-10,-3,-2
6801062411,-3,0,1,2,0,13,14,5
6801062411,13,5,1,2,3,-1,-7,-1
6801075993,0,7,3,-1,-5,-4,3,0
6801075993,-1,-6,-8,-3,-1,0,0,-7
6801084945,-4,-2,-2,1,1,-3,-2,3
6801084945,-7,-4,4,-4,0,-1,0,-3
6801099855,5,-8,-5,3,-3,-5,-5,-2
6801099855,-16,14,5,1,3,14,14,6
6801101362,-4,-2,5,4,0,-5,-7,-5
6801101362,14,4,3,-5,1,-1,2,3
6801113541,-9,-15,-13,1,-4,-3,-5,-7
6801113541,0,-9,-6,-1,-3,-3,-7,-4
6801122475,-15,3,10,5,3,0,-1,-3
6801122475,22,10,-4,-7,-5,-1,2,5
6801136050,-12,-31,-18,11,6,-1,0,-1
6801136050,18,39,29,13,3,2,1,5
6801144954,-10,-22,0,38,6,-2,-3,-6
6801144954,-14,22,6,-40,2,4,1,-3
6801159933,15,-51,-39,20,13,4,2,5
6801159933,-11,9,7,4,-10,-8,-7,-5
6801161418,1,21,-10,-14,-18,-8,-2,-2
6801161418,-1,-23,0,24,11,5,1,-2
6801173530,1,-53,35,3,1,5,3,1
6801173530,2,-13,-17,-19,-2,-1,-2,3
6801182445,22,24,6,-16,2,0,0,6
6801182445,-8,7,4,-4,-3,-2,-4,-1
6801196077,-1,60,12,9,-9,0,0,-6
6801196077,18,-74,-20,-4,0,-3,-3,2
6801211109,-8,67,23,10,4,3,2,4
6801211109,-14,2,-3,22,5,-2,-2,-3
6801219976,-22,-29,-14,-18,-6,3,1,-2
6801219976,20,16,-8,3,-3,-3,-8,-7
6801221437,6,6,-9,-12,-9,-2,-1,0
6801221437,48,32,4,-2,-1,-7,7,11
6801233583,-28,-26,-3,-7,-10,3,-8,-7
6801233583,-15,1,-4,-3,1,-11,-5,-7
6801242461,11,-32,-17,-10,-2,7,-11,5
6801242461,8,25,6,8,3,7,15,-3
6801256078,-5,27,-2,-18,-14,-24,-14,-13
6801256078,-16,-20,-5,-29,-6,-32,-88,6
6801264896,0,-11,8,23,20,42,63,2
6801264896,-4,0,6,7,-6,1,-20,-3
6801279912,15,8,-7,-7,-12,-6,12,9
6801279912,-11,17,7,10,0,-16,-13,-11
6801281416,-6,-17,-21,-39,2,-11,-26,-4
6801281416,-15,-24,-5,-2,-1,8,12,-3
6801293611,8,18,22,-6,-8,0,-6,2
6801293611,4,-3,0,27,25,10,21,2
6801302472,7,-9,6,8,2,-2,-5,-2
6801302472,-24,-39,-8,-7,-6,-6,2,-7
6801316113,-2,17,4,-8,-5,-11,-19,-3
6801316113,-5,13,-1,-30,-16,7,17,0
6801324972,0,-12,-4,4,-2,-6,3,-1
6801324972,-16,-18,-12,-7,6,-1,-16,-9
6801339936,7,36,17,-8,-7,-1,1,3
6801339936,4,21,-12,-3,-15,7,18,7
6801341414,-7,-14,46,91,0,-16,-17,-8
6801341414,-9,-19,-87,-104,4,7,-3,1
6801353551,2,-5,-20,0,10,8,8,2
6801353551,10,9,14,16,7,6,20,2
6801362446,-2,-3,-12,-31,-25,-10,-14,-1
6801362446,-4,5,30,50,-4,-5,-3,0
6801376059,-2,-1,10,-4,6,0,0,-2
6801376059,0,-10,-23,5,-3,4,3,0
6801384939,-1,3,0,-12,0,-5,0,-1
6801384939,5,7,0,7,8,9,5,2
6801399923,-2,9,-19,-26,-6,-6,-7,-4
6801399923,-4,-5,19,11,2,2,2,0
6801401416,-5,-23,-14,-1,-4,2,1,-1
6801401416,-9,-6,4,-24,-5,-2,2,-1
6801413624,4,15,14,21,-4,2,-6,-1
6801413624,-4,-6,-12,-6,-1,4,3,-4
6801422415,2,7,0,-11,3,-5,-2,-1
6801422415,8,9,6,11,-2,-3,-7,0
6801436057,13,11,16,0,-3,-3,1,5
6801436057,-18,-17,2,25,9,6,9,-3
6801444961,-5,-3,-13,-27,7,6,-11,-4
6801444961,-4,-14,-24,-1,-5,-10,-4,-4
6801460393,6,14,12,-22,-7,-3,1,-2
6801460393,3,7,-6,13,5,7,5,2
6801461919,-2,-11,-5,-18,-9,-14,0,3
6801461919,3,12,7,11,-4,6,-4,1
6801482380,-8,-24,-1,19,2,2,0,-2
6801482380,-4,-6,6,-10,5,5,1,0
6801483924,-1,-2,-7,-5,3,-4,-1,-5
6801483924,-1,3,13,5,-12,-7,-5,-1
6801496037,-1,-2,-8,8,3,0,0,0
6801496037,0,6,8,-4,-1,-4,1,-1
6801504914,5,1,-8,0,2,20,0,0
6801504914,-7,-11,10,10,-6,-17,-8,-4
6801519865,-6,5,-12,-5,14,3,6,-1
6801519865,2,5,13,11,-4,-2,-3,1
6801521447,4,3,-4,-1,6,1,3,0
6801521447,-7,-1,6,-3,1,1,-1,-3
6801533556,-4,1,2,5,0,-7,-7,-2
6801533556,1,-9,-8,-16,-9,-1,-1,-1
6801542422,-4,7,7,18,7,2,8,1
6801542422,-1,-3,9,12,-2,3,3,1
6801556057,0,0,2,-12,-1,0,1,0
6801556057,5,0,-10,-35,-11,-5,-6,-2
