timestamp,emg1,emg2,emg3,emg4,emg5,emg6,emg7,emg8
6004788833,3,7,18,-4,-7,-4,-2,-1
6004788833,-11,-23,-49,-3,-3,1,6,-3
6004789526,1,7,0,-1,-8,-6,-6,-2
6004789526,3,14,2,-1,2,0,-6,-2
6004790427,10,-10,6,4,3,2,-2,-1
6004790427,-2,-2,11,5,-2,-2,1,2
6004795490,-6,13,25,-5,-2,0,3,-2
6004795490,2,-11,-28,5,-2,2,-4,2
6004801948,-5,-9,16,-5,-9,-2,-1,-3
6004801948,6,8,-1,2,0,-4,-3,-1
6004810771,-5,4,-2,-8,1,2,-3,-2
6004810771,-5,-12,16,-6,-5,-1,5,-1
6004818472,3,6,15,-5,0,0,1,-1
6004818472,1,11,-40,6,6,-1,-5,2
6004832033,3,-13,-5,-10,-3,-1,-1,-2
6004832033,-1,-2,1,6,0,4,4,-1
6004843464,-7,11,5,1,-3,-5,-4,0
6004843464,3,-2,21,-4,-13,-8,-10,-1
6004847076,-2,-17,-14,10,8,1,2,1
6004847076,-8,10,4,-3,-8,-12,-9,-5
6004862151,-1,-1,-16,0,10,14,12,3
6004862151,1,-11,24,-15,-1,0,-2,-2
6004870663,4,1,-18,8,-2,-4,-8,0
6004870663,-3,0,-5,2,2,5,6,-1
6004910180,-7,-20,44,-3,-6,-5,-7,-5
6004910180,2,-8,-42,-17,-2,-3,-4,1
6004911060,2,20,6,18,3,-2,4,-2
6004911060,8,-11,-19,-19,-6,-4,-4,1
6004911896,-2,-7,21,16,4,5,4,1
6004911896,-8,13,8,-11,-5,1,-2,-2
6004914974,-2,-8,-6,-4,0,3,3,-1
6004914974,6,-15,-1,5,6,6,-4,-2
6004921868,0,15,-9,4,0,-4,-2,-2
6004921868,-11,-4,9,-10,-6,-5,4,-2
6004929394,-2,-25,-21,0,0,-1,-5,-1
6004929394,-5,4,-7,2,-3,-4,-1,-4
6004938266,3,11,2,-17,-9,-1,-1,-2
6004938266,-2,-4,1,6,6,3,2,-2
6004951735,6,-3,42,3,-2,-7,-10,3
6004951735,-3,10,-54,-3,5,2,8,0
6004960753,1,-1,-5,4,-4,-4,-4,-2
6004960753,2,-15,-34,24,0,-2,-3,-1
6004966914,-6,9,11,-16,2,1,0,-2
6004966914,-6,2,24,-1,-4,-3,-6,-4
6004981844,-3,-9,-11,0,-5,-2,2,-1
6004981844,8,6,8,-16,-3,-5,-4,0
6004989372,-3,-4,-24,6,-3,-2,-1,-1
6004989372,0,-4,-3,-8,-3,0,-5,-1
6004998215,2,3,7,10,0,-1,0,0
6004998215,-3,-1,31,-1,2,2,4,0
6005011833,-8,0,-14,-3,-3,-5,6,-6
6005011833,5,-1,25,0,-1,6,-9,1
6005020728,-2,0,-28,-7,4,2,4,1
6005020728,4,0,24,6,0,-1,-4,0
6005026850,-5,-6,-10,-5,-4,-3,-6,-4
6005026850,-3,3,6,7,0,-2,8,-1
6005041886,4,0,-20,-9,8,3,-3,-1
6005041886,3,0,8,4,0,-1,1,-1
6005049384,7,3,13,9,0,3,-2,5
6005049384,-6,-1,-6,-2,-4,-3,-1,-2
6005058216,-6,-6,-15,0,2,3,1,-1
6005058216,8,1,-7,-13,-4,-1,0,-2
6005071878,-5,4,-3,6,-1,-2,-1,-1
6005071878,1,-2,120,4,3,-4,1,5
6005080738,-5,-5,-7,-19,-10,-4,-1,-8
6005080738,-13,-1,10,0,1,2,7,0
6005086896,8,8,41,11,1,0,-6,-2
6005086896,-2,-12,-39,2,1,-14,11,4
6005101749,4,2,18,2,1,22,-8,-5
6005101749,5,-7,-21,-8,-4,-5,-1,3
6005109342,-10,-7,-81,-16,-7,-5,-2,-2
6005109342,-8,9,-7,5,-2,1,-5,-6
6005118219,7,21,39,6,-1,-5,1,4
6005118219,7,7,-30,12,5,0,4,-1
6005131880,-3,3,116,1,0,-3,-8,0
6005131880,-8,19,-24,-8,-5,2,6,-1
6005140711,-1,45,16,-7,0,-7,-12,-3
6005140711,-4,40,18,24,6,4,-1,1
6005146842,4,26,-4,-25,-10,-4,5,2
6005146842,3,8,13,10,-4,-22,-11,1
6005161823,-4,12,68,15,16,29,21,6
6005161823,-2,27,-84,-12,-3,-11,-31,-13
6005169348,-4,0,-27,-2,8,1,-8,2
6005169348,12,13,4,-6,-9,4,4,3
6005178221,-14,22,-36,-3,-8,-11,-7,-5
6005178221,-2,-2,34,9,8,10,11,2
6005191886,5,-24,20,1,1,-4,1,-5
6005191886,3,-41,-3,6,2,3,-6,2
6005200710,6,-70,-19,-7,-7,-15,-8,-3
6005200710,-5,-47,26,-11,-7,0,56,12
6005206825,-7,-32,-41,0,-2,3,6,-5
6005206825,3,-19,20,-6,0,5,6,3
6005221743,2,-50,2,-10,-2,-7,-10,-3
6005221743,4,-6,28,2,-2,-16,-11,-3
6005229397,4,-9,-2,16,-2,23,-13,-4
6005229397,3,9,45,-8,-8,-9,7,0
6005238223,-26,33,-45,0,11,8,0,0
6005238223,-13,-9,10,3,-5,-9,-23,-8
6005251833,11,19,11,-27,-1,9,14,2
6005251833,5,3,-37,12,5,-3,-11,-1
6005260740,3,-21,7,-9,-6,-10,2,5
6005260740,4,6,24,-6,-12,0,-7,-3
6005275052,-13,0,4,-3,-1,-4,-2,-1
6005275052,-9,-12,-31,-11,10,12,-1,-8
6005281867,1,-5,-18,5,-2,-11,3,0
6005281867,-2,-11,-14,10,8,11,-17,-1
6005289325,21,-9,37,-7,-2,-8,6,8
6005289325,-2,1,18,-4,-13,-2,-2,0
6005298228,-9,-13,11,8,0,-3,-5,-5
6005298228,-14,-39,8,-1,-5,-4,-15,-11
6005311841,-10,-15,-22,3,-6,-8,-9,-6
6005311841,-3,26,-8,-35,-9,-2,7,5
6005320717,0,-6,-12,8,4,10,-7,-2
6005320717,6,-24,-2,-6,4,1,3,-2
6005335079,5,8,-4,8,-15,-11,-3,1
6005335079,5,2,-63,13,14,5,9,2
6005341857,-7,-8,64,2,1,2,4,-2
6005341857,2,11,-33,-2,1,0,1,-3
6005349354,-4,-20,-13,3,-2,-4,-3,-1
6005349354,-4,-6,-15,-5,-5,0,-12,-5
6005358241,9,17,53,8,-2,-2,2,2
6005358241,-11,2,16,-27,-9,-3,5,1
6005380614,-14,-13,-22,9,11,1,3,-6
6005380614,11,6,11,2,-3,-5,-7,-2
6005382220,7,-4,-3,15,-9,-4,-4,1
6005382220,6,8,-20,-21,-4,5,2,3
6005395092,12,18,43,-10,-7,-6,-28,-5
6005395092,-16,-31,-3,9,6,4,32,5
6005401833,-9,-8,-58,-11,-5,3,-4,-8
6005401833,0,24,3,26,6,-2,-5,-1
6005409402,-3,5,7,-5,2,0,4,-6
6005409402,-3,2,20,-3,0,-3,-17,-3
6005418179,4,-2,-33,-11,-3,-8,0,3
6005418179,6,-1,19,11,-5,2,10,2
6005431848,9,17,-47,-9,1,0,-1,-3
6005431848,-19,-13,13,4,4,-1,-5,-5
6005440675,-3,-10,-22,-13,-7,-1,10,1
6005440675,5,1,-11,-15,2,-5,-6,1
6005455034,-2,9,-4,5,6,8,12,5
6005455034,-1,13,2,3,-4,-6,-15,-5
6005461875,12,17,31,5,0,2,3,7
6005461875,1,3,-2,15,10,4,-7,-1
6005469260,-2,-11,-1,7,-2,-1,15,5
6005469260,-6,1,11,4,-5,-6,-8,-7
6005478193,1,-1,-8,-11,-4,-6,1,-1
6005478193,4,9,-14,-14,-6,-1,-1,-2
6005491835,-19,-9,11,-4,2,-1,-4,-3
6005491835,2,4,12,0,-4,4,6,0
6005500744,-2,6,-17,8,4,0,-2,-1
6005500744,4,-25,-9,-8,-12,-7,1,-3
6005515056,2,7,-24,-3,2,-6,-2,1
6005515056,-2,-3,58,3,0,12,12,2
6005521875,-3,9,50,4,6,-2,-6,-4
6005521875,2,0,35,16,1,-2,0,3
6005529335,-10,-9,17,-9,6,14,7,-3
6005529335,9,6,-28,-8,-9,-11,-7,-2
6005538233,0,-8,6,8,5,1,2,0
6005538233,-5,-10,-11,-5,-3,-4,-3,-2
6005551845,0,17,1,3,-6,-5,-1,-1
6005551845,-8,-15,-13,4,5,6,-2,-3
6005560717,11,3,-49,-9,0,-4,3,5
6005560717,0,-9,-1,20,-11,-5,-1,-3
6005574944,-6,-6,-22,-11,6,2,-5,1
6005574944,-4,-3,15,-16,-3,-1,-5,-6
6005581786,-1,3,-14,-4,-9,-8,-5,-2
6005581786,4,4,25,11,7,6,-1,2
6005589269,0,2,-6,-8,-12,-3,10,3
6005589269,-1,1,-33,6,7,0,-3,1
6005604340,-9,-11,67,-2,-2,-7,-7,-8
6005604340,-7,7,-61,-9,-5,-4,-2,-3
6005611771,12,-5,-15,1,0,1,2,5
6005611771,4,7,-1,1,2,2,2,0
6005620675,-6,0,3,-9,-7,-1,1,-3
6005620675,-4,0,-22,-5,6,3,2,-2
6005634963,6,2,45,10,-6,-8,-12,-4
6005634963,-6,-5,-47,-7,4,3,6,2
6005641819,2,1,-41,6,-6,1,1,2
6005641819,-7,6,-39,0,6,3,2,1
6005649313,-2,-9,-29,-25,3,1,-2,-3
6005649313,-1,-2,30,34,-5,-5,-7,-4
6005664337,4,3,-12,-31,4,7,4,1
6005664337,-2,-2,28,2,5,0,0,0
6005672555,-3,2,9,12,-7,-8,-3,-2
6005672555,8,5,57,1,1,-2,-5,-3
6005679223,0,5,10,4,-4,-2,-1,0
6005679223,3,-7,-4,-6,-4,-6,-1,2
6005695021,-8,-4,-4,5,1,5,-1,-1
6005695021,4,-3,9,6,3,-6,-5,-4
6005701779,0,-4,11,9,-4,1,3,4
6005701779,-2,3,-3,-18,8,3,-11,-4
6005709226,-2,-7,26,-3,1,1,-3,0
6005709226,2,5,13,18,0,0,1,2
6005724280,-4,-5,-38,-6,-3,-6,-4,-3
6005724280,-3,8,50,21,5,6,2,0
6005732496,-4,-11,-79,-13,-9,-6,0,-7
6005732496,-8,-5,-6,-18,-2,-1,-6,-1
6005739349,6,-2,-13,18,6,3,6,0
6005739349,-8,-1,10,-18,-10,-5,-1,-2
6005755073,0,1,-3,11,9,4,1,0
6005755073,6,1,35,1,-6,-1,-2,1
6005761813,5,5,-52,-14,-2,-4,-2,0
6005761813,-2,7,38,-2,-4,2,3,0
6005769183,-2,-2,55,23,-9,-7,-3,-1
6005769183,-6,-18,-112,-37,-1,-2,0,-2
6005784270,-7,-9,10,-5,13,4,-8,-5
6005784270,5,-3,-33,-4,-5,1,3,2
6005792486,-4,-1,24,-5,-7,-6,-2,-1
6005792486,1,4,-7,8,-5,0,1,0
6005799255,-2,2,13,-5,-2,0,1,0
6005799255,-2,-10,5,-2,3,-4,1,-5
6005814970,-5,7,-17,1,-3,-2,-5,-1
6005814970,-2,-4,-13,-4,-4,-1,1,0
6005821823,1,2,12,4,-2,0,2,-3
6005821823,-4,1,28,9,-1,-4,-3,-2
6005829199,-4,-7,-13,-16,0,5,4,0
6005829199,-7,5,-7,-4,3,1,-2,-3
6005844322,3,1,1,5,-6,-4,-4,2
6005844322,8,-2,-24,3,-4,-2,0,4
6005852505,2,12,21,4,2,-3,-4,-2
6005852505,-4,-6,10,-4,-4,-4,-3,-2
6005859328,-5,-7,-30,-5,-9,-6,-3,-7
6005859328,-1,5,26,20,1,-1,-5,-1
6005875060,12,1,-25,-19,12,6,6,5
6005875060,1,8,12,6,13,5,3,3
6005881823,-9,3,23,6,-4,-4,-7,0
6005881823,-9,-12,-17,-9,-8,-1,5,-5
6005897556,0,-2,20,10,-4,-7,-6,-3
6005897556,5,2,-28,-10,0,2,1,1
6005904215,1,-2,1,-12,-3,-1,-1,-1
6005904215,0,5,-11,10,-2,0,1,-1
6005920513,2,-8,-35,-9,-4,-2,0,-1
6005920513,12,23,87,15,-2,-3,-6,0
6005922177,-15,-29,-48,-8,7,2,6,2
6005922177,7,3,6,-1,-1,-1,-5,-3
6005934957,-16,-9,-18,-2,-4,-2,-1,-4
6005934957,-5,-6,-19,-5,-7,-5,-4,-2
6005941827,2,-1,15,6,1,0,-2,-2
6005941827,11,0,-26,-9,1,1,0,6
6005957461,-1,6,10,4,-2,0,-2,-1
6005957461,1,-3,-28,-14,-12,-1,-1,-2
6005964344,3,4,6,28,2,-2,-2,-2
6005964344,-4,-7,-23,-52,3,-1,3,1
6005980642,1,1,-15,9,2,0,-12,-4
6005980642,-12,-5,88,15,7,5,4,3
6005982118,2,-2,18,5,6,-1,-3,-1
6005982118,-1,2,25,4,-7,-6,-5,-4
6005994995,2,2,-2,-9,-8,-3,2,-1
6005994995,3,-5,-41,-9,0,-1,1,-1
6006001806,5,9,25,7,1,4,1,4
6006001806,-10,-12,-4,-8,-11,-5,-4,-4
6006017508,-5,6,31,7,2,2,2,-1
6006017508,2,-8,-31,5,2,-3,-8,-3
6006024431,-2,3,1,-8,0,-1,2,1
6006024431,-3,-1,-1,4,0,-1,-1,-2
6006040611,9,-5,-6,4,-1,2,1,2
6006040611,-14,3,7,-2,-7,-4,-2,0
6006042170,8,3,-3,1,-5,-1,1,-2
6006042170,-3,-6,-35,-20,6,1,0,-2
6006054867,1,6,16,22,5,1,0,-1
6006054867,2,-5,-43,-14,0,0,3,2
6006061812,-4,-4,16,3,-8,-6,-5,-3
6006061812,-10,0,-1,7,-3,-3,4,-1
6006077513,1,0,19,-19,-8,-4,-9,-2
6006077513,3,-4,-3,3,3,0,0,-1
6006084346,2,4,-14,-10,0,-2,1,-1
6006084346,-4,-9,18,13,0,0,-1,-2
6006100575,3,-5,7,-2,5,0,2,2
6006100575,-1,1,4,2,-6,-5,-3,-2
6006102153,-3,-4,-5,-1,1,-2,-4,-4
6006102153,-1,7,40,17,-4,-3,-5,-1
6006115072,-5,-1,-43,-22,-8,0,1,1
6006115072,0,-3,-15,7,12,5,3,-1
6006121707,7,0,12,2,3,1,0,-1
6006121707,-1,3,-34,-7,-4,-1,-1,4
6006137537,-8,3,2,3,-6,-3,-1,-6
6006137537,-4,-10,-15,-15,-10,-4,-3,-5
6006144245,-2,0,-9,-5,-4,0,0,1
6006144245,10,4,27,9,8,7,2,2
6006160674,-5,1,6,9,2,0,9,1
6006160674,4,1,-8,-13,-4,-1,-5,-3
6006162169,1,5,33,4,-1,-1,-4,1
6006162169,-1,-3,-8,-6,-3,-4,-2,-1
6006175040,-1,2,-33,8,1,0,1,0
6006175040,-4,-2,-9,-13,-7,-3,-1,-1
6006181769,-2,1,-17,3,-1,2,-2,-1
6006181769,0,-2,9,0,-5,-4,2,0
6006197398,6,-1,-3,-1,-1,-1,-2,-2
6006197398,-3,0,10,24,10,5,1,0
6006204240,-8,-4,-8,-30,2,-3,-4,-3
6006204240,-2,-9,-33,0,-2,-2,-4,1
6006220553,2,-1,68,3,1,-2,-3,-2
6006220553,12,5,-3,-4,-5,-1,0,1
6006222142,-14,3,-3,5,-4,-1,1,1
6006222142,1,-1,-8,4,3,1,-3,-6
6006234968,6,0,19,-9,-2,-5,3,2
6006234968,-10,-2,-20,5,-3,-1,-7,1
6006241823,-3,0,-4,-2,0,3,1,-2
6006241823,-1,2,8,-11,-2,-2,-1,0
6006257500,2,3,-16,6,5,3,2,1
6006257500,2,9,25,4,0,0,1,0
6006264277,0,-15,-28,-13,-7,-6,-3,-4
6006264277,-3,2,-28,5,-2,1,0,-1
6006280711,3,3,43,-5,7,3,-5,0
6006280711,-16,-5,1,10,6,-1,5,-2
6006282170,-8,-3,7,-14,-5,-3,-2,-1
6006282170,9,0,-11,2,5,0,-3,-2
6006294294,0,-3,-17,9,-2,-1,-3,0
6006294294,9,-4,14,-1,-1,-1,2,1
6006303191,-7,3,-7,6,-2,1,1,1
6006303191,-5,-5,-23,-14,-5,-1,-2,-3
6006317488,-4,-5,7,6,0,-1,-3,0
6006317488,-2,3,16,-7,-7,-6,-5,-4
6006324313,-1,-1,14,12,10,5,3,-1
6006324313,6,9,18,-13,-1,-2,-1,0
6006340644,-7,-13,-45,-8,-6,-5,-4,-4
6006340644,1,-1,-12,-4,-4,-1,-1,0
6006342169,8,3,55,0,-4,-1,2,1
6006342169,-10,-4,-58,1,-5,-3,-4,-4
6006354201,-2,-4,-23,-12,-4,-2,-2,-3
6006354201,-1,4,34,-1,-1,-1,3,1
6006363124,5,-2,9,11,3,-1,-1,0
6006363124,-2,5,32,0,6,2,1,0
6006377389,-5,-17,-9,-1,-4,0,0,-5
6006377389,-7,-3,-34,-6,-3,-2,-4,-2
6006384174,6,0,-19,-4,-10,-5,-5,-2
6006384174,-1,4,14,6,1,-1,-1,0
6006400661,12,4,20,-2,2,2,0,-4
6006400661,-10,-4,17,7,4,1,-2,-3
6006402174,0,-11,-25,-12,4,-1,1,-1
6006402174,-5,3,2,8,-6,-3,-2,-2
6006414341,0,0,6,-2,-1,-2,0,0
6006414341,17,6,-3,-21,-8,-3,-2,2
6006423194,-5,3,2,0,6,1,0,-1
6006423194,-10,-8,35,11,1,1,0,-2
6006437485,-3,13,-6,-2,-5,-1,-1,2
6006437485,-1,-4,6,1,-3,-3,-4,-3
6006444285,3,-2,-59,6,2,0,2,-1
6006444285,4,-1,52,-1,-1,2,-5,1
6006459957,2,0,-9,4,4,-1,0,1
6006459957,-13,-8,-13,0,-4,-5,-1,-2
6006460668,10,4,-14,-12,-8,-3,-2,-2
6006460668,-6,-3,11,7,7,-1,0,-4
6006482423,-4,-5,-4,-3,-7,-3,-2,-2
6006482423,13,2,-27,-3,3,1,-1,1
6006483126,-15,-10,-26,-11,-6,-2,-1,-3
6006483126,-6,-5,-3,-7,-3,-2,0,-2
6006498143,5,8,-2,5,2,0,0,1
6006498143,-2,-2,1,1,-6,-5,-1,-3
6006504276,7,2,25,-6,-5,-1,-3,0
6006504276,-4,-5,-27,-8,2,-2,0,-2
6006519306,-10,-6,53,3,6,5,3,-3
6006519306,8,6,-19,9,0,-1,-2,1
6006526727,-8,3,38,10,7,-2,0,0
6006526727,-4,-4,13,-17,-10,-1,0,-4
6006542462,-1,-4,-35,-8,-2,-4,-4,-1
6006542462,5,-4,12,0,-5,0,3,1
6006543143,-7,0,-11,-5,-6,-3,-12,-3
6006543143,3,-1,7,7,3,-2,2,-3
6006558161,-3,1,-17,24,6,2,1,2
6006558161,-3,-5,26,-8,0,0,0,-3
6006572518,-3,-10,-13,-12,-6,-5,-1,-3
6006572518,7,5,-11,-4,-4,0,0,2
6006579190,-9,-6,-25,-1,7,5,1,0
6006579190,-8,-8,-11,-3,-2,-3,-4,-5
6006586791,3,2,11,4,-3,-1,1,2
6006586791,-2,1,4,12,-3,-4,-5,-3
6006603837,-3,-4,-19,-10,-5,-3,0,-3
6006603837,2,-3,12,-6,6,3,3,4
6006604726,-3,-1,35,14,7,1,1,1
6006604726,4,-8,-76,-10,-9,-5,-2,1
6006618130,-3,-1,1,-13,-6,-4,-5,-1
6006618130,-6,-1,-8,12,4,-2,-3,-5
6006624271,-2,-6,-7,-8,-4,-1,0,-2
6006624271,4,7,17,12,2,1,0,2
6006639260,-1,-4,-52,-9,5,-1,-3,-5
6006639260,-9,-10,-28,-9,-7,-4,-3,-5
6006646774,6,11,27,6,10,3,5,0
6006646774,-5,1,-17,-5,-6,1,-4,0
6006662456,-3,-10,-10,-7,-5,-1,-2,-3
6006662456,7,8,24,16,-5,-6,0,5
6006663143,-1,-7,-26,-11,-3,-3,-4,-1
6006663143,2,1,28,2,5,4,5,1
6006678148,7,1,11,9,0,1,0,0
6006678148,-14,-8,-56,1,-1,0,-3,-4
6006684319,8,11,38,-14,-9,-3,-1,0
6006684319,3,-2,-31,1,4,0,0,2
