timestamp,emg1,emg2,emg3,emg4,emg5,emg6,emg7,emg8
6782568986,1,23,-5,-5,-3,-1,1,1
6782568986,12,2,0,0,-2,-4,-7,1
6782569673,-7,-22,-5,-5,-2,-1,6,-1
6782569673,5,19,3,-2,1,-3,-1,2
6782570576,-8,0,0,2,2,5,0,-1
6782570576,-7,-15,-1,-2,-4,-2,-3,-2
6782571290,0,15,0,-4,-5,-5,-7,-1
6782571290,-1,5,-3,-3,1,3,1,-4
6782582711,5,-15,1,16,-1,-2,0,2
6782582711,-4,4,-2,2,0,-2,0,0
6782590703,-4,4,0,6,6,2,-1,-2
6782590703,-6,-11,-6,-4,-2,-3,-2,-2
6782597059,1,-6,0,-6,-5,-5,-2,-2
6782597059,3,10,1,-1,-2,0,0,2
6782612057,6,5,1,3,-3,-1,1,0
6782612057,2,-8,-5,3,2,2,0,-1
6782621368,-3,6,10,-2,-4,-2,-3,0
6782621368,-2,-4,-18,-13,2,2,1,-4
6782627079,-3,-4,3,-7,-5,-2,-1,1
6782627079,11,-1,4,26,5,1,-2,3
6782642744,-17,-3,-3,-8,-3,-2,-2,-4
6782642744,6,0,7,-1,-2,-3,2,-1
6782650613,6,2,1,3,3,1,-4,0
6782650613,-17,-2,0,-16,-11,-5,-1,-4
6782690167,-1,-5,-5,11,11,4,2,-1
6782690167,3,-23,-6,-6,-5,-4,-3,-1
6782691030,5,19,1,-6,-4,-3,-1,1
6782691030,1,8,-2,-2,-10,-11,-7,-1
6782691939,1,-14,4,-1,2,4,-1,-2
6782691939,-4,10,-2,-6,-1,0,-1,1
6782694309,-4,-3,6,30,18,6,3,-3
6782694309,3,-4,-4,-14,-3,2,-1,-1
6782702535,5,-4,-5,-12,-7,-5,-1,4
6782702535,-3,10,-2,2,-7,-7,-5,-2
6782709232,11,-3,-3,-9,-5,-3,-1,0
6782709232,-12,-12,4,10,9,4,4,-1
6782716836,-15,16,2,3,-3,-4,-7,-5
6782716836,1,-5,0,-5,-1,3,-1,-1
6782731808,-1,-18,-3,-3,0,-2,-1,1
6782731808,13,4,-1,5,-1,-4,-1,-4
6782740035,-12,9,-7,-14,-13,-7,-3,0
6782740035,-4,-7,-5,5,3,-2,-4,-1
6782746789,-5,-5,-1,-2,2,4,6,-1
6782746789,8,14,4,2,6,4,2,3
6782762532,1,-8,-3,-2,-4,-3,-2,-3
6782762532,1,-1,0,-7,-5,-5,-2,-3
6782769259,-3,-2,-1,1,6,7,4,2
6782769259,-5,-4,-4,-13,-5,-2,-4,-1
6782776816,3,-9,1,21,11,4,11,1
6782776816,0,4,3,4,-2,-2,2,-6
6782791836,3,4,-8,-4,-2,-1,-13,3
6782791836,-2,3,9,-16,-6,-2,2,1
6782800055,-5,-6,-2,25,6,-1,-7,-1
6782800055,5,8,1,-4,-4,3,9,1
6782806794,-1,2,5,1,1,2,-5,-2
6782806794,-6,-15,-9,4,0,-2,-4,-2
6782822533,15,23,25,5,8,2,-2,3
6782822533,1,0,10,7,5,3,1,5
6782829250,-9,-19,-16,-9,-11,-9,-4,-6
6782829250,-3,-3,-4,-8,-7,-5,0,-3
6782836833,9,12,12,1,0,4,1,-2
6782836833,-4,-14,-7,2,3,3,16,5
6782851808,-2,2,2,-5,-4,-1,-5,5
6782851808,4,-3,-5,5,2,-6,-3,-15
6782859986,0,-8,-2,-13,-5,-3,-1,9
6782859986,-9,-2,0,1,2,1,-4,-9
6782866729,-4,5,-1,-3,-3,-3,-1,-5
6782866729,5,8,1,5,0,1,5,3
6782882466,-1,5,-6,-6,-7,-4,-22,-9
6782882466,-1,15,-5,-5,0,4,25,6
6782897476,4,-5,3,1,0,-2,8,0
6782897476,-6,-24,-1,3,3,-3,-10,-2
6782898169,-10,-8,-6,-9,-5,-3,8,-5
6782898169,7,11,0,-1,-1,-4,-3,2
6782911675,-16,-7,2,-1,-3,6,-9,-4
6782911675,13,1,0,3,0,0,-11,4
6782919802,-3,7,-10,-8,-6,-4,5,0
6782919802,-4,-15,-1,0,1,0,-7,-9
6782926766,12,-15,0,-1,-6,-15,-19,9
6782926766,-3,39,6,3,1,14,-8,-4
6782942461,2,10,-1,-1,0,-2,25,-2
6782942461,29,40,21,8,-2,0,-18,8
6782949328,-70,-58,-14,-3,8,0,5,-22
6782949328,0,47,8,12,2,-4,7,7
6782956809,-2,-84,-35,-24,-11,-9,-19,-14
6782956809,-25,44,7,28,-2,-8,-7,-5
6782971794,48,76,23,26,5,11,21,23
6782971794,-68,-89,-61,-57,-4,-10,-11,-21
6782979934,3,50,19,11,-2,1,-2,-7
6782979934,63,-12,12,-44,1,1,-5,11
6782994291,-37,-79,-21,39,5,-11,-13,-20
6782994291,13,-29,24,15,-16,5,14,13
6783002414,9,109,-50,-44,6,2,4,19
6783002414,-25,13,2,4,5,5,2,-5
6783009204,9,-77,19,6,2,4,0,-5
6783009204,24,32,34,29,4,-3,-11,-4
6783016781,6,5,-26,-8,-2,3,0,3
6783016781,-20,-23,2,-5,-15,-8,0,-4
6783031765,26,35,-1,-28,-5,-3,-3,3
6783031765,-16,-8,-10,-1,0,-7,-20,0
6783040049,13,10,35,17,1,0,8,8
6783040049,2,8,-11,-15,1,9,-17,-3
6783054356,-1,64,3,39,14,0,11,-4
6783054356,15,26,13,-1,-25,-12,-47,10
6783062508,-9,-22,-2,-10,17,6,31,-4
6783062508,-7,2,-10,26,0,-10,0,1
6783069217,-2,-3,-4,-34,-11,2,1,-2
6783069217,7,18,9,29,15,0,19,-3
6783076759,-39,-10,2,-29,-4,2,-8,-3
6783076759,3,-21,-21,-30,-21,-2,-11,0
6783091832,-3,-13,-18,-8,-6,-6,-11,-16
6783091832,8,2,15,38,40,12,10,8
6783100072,5,-50,10,32,-3,1,-9,3
6783100072,-7,-51,-9,-51,4,-1,2,-7
6783114258,4,21,-1,1,-13,-6,0,4
6783114258,4,-27,-19,-15,-24,-15,-1,-9
6783122534,-7,-50,-1,-6,-3,4,-2,-4
6783122534,-6,-16,-2,23,5,-2,1,-2
6783129231,6,15,4,0,3,1,1,3
6783129231,-20,-20,4,-51,-9,5,10,-9
6783136863,2,-11,-9,0,-2,-6,-11,-2
6783136863,0,13,8,14,-2,-9,-1,-4
6783151777,-14,-11,8,-12,3,6,6,-3
6783151777,3,5,-18,-9,-8,0,4,2
6783159947,-11,3,14,14,-7,-9,-10,-9
6783159947,0,4,-6,25,17,2,1,1
6783174270,1,13,1,-30,-7,-6,-4,-2
6783174270,15,23,-23,-7,2,12,15,10
6783182498,1,5,0,-11,-11,-7,-8,-4
6783182498,-8,-7,-7,-2,-5,-7,-3,-3
6783189320,9,4,-4,22,-12,-7,-8,2
6783189320,-4,1,-9,-26,11,10,15,1
6783196795,1,0,-12,-5,-3,-16,-8,-2
6783196795,-11,-16,8,3,-7,4,-5,-7
6783211845,4,31,6,0,-4,-3,8,2
6783211845,-5,8,8,3,6,4,-2,0
6783220672,-3,-8,-5,4,-5,-1,9,-1
6783220672,-12,-3,4,5,-3,-9,-14,-6
6783234307,4,4,-3,-9,8,14,12,2
6783234307,0,-15,-3,12,3,-7,-1,-1
6783243149,-1,1,14,10,3,3,4,-1
6783243149,7,0,-13,-5,-5,-4,2,-4
6783249246,-4,-4,-6,-17,-5,0,23,6
6783249246,-2,-10,6,9,2,2,7,0
6783265676,12,8,9,11,-3,3,-5,2
6783265676,-10,1,-2,-8,1,-1,5,-2
6783271798,-3,-1,1,-1,-4,-9,-18,-4
6783271798,-4,-1,2,4,-2,-3,7,-5
6783280702,8,-12,-7,-1,3,3,-3,4
6783280702,7,13,-7,0,6,6,4,3
6783294309,-9,-3,6,-3,-2,-1,-14,0
6783294309,-6,-4,3,1,-5,-3,2,-2
6783303150,-3,4,2,-4,-1,-1,-9,-2
6783303150,0,-4,-4,-1,-2,0,0,-2
6783309323,-3,-14,-7,0,0,-8,5,-1
6783309323,0,-4,-3,-4,0,3,15,-1
6783325686,1,6,6,5,3,15,11,3
6783325686,-1,-6,-4,1,0,-2,0,2
6783331809,7,-4,-6,-6,-2,-3,-13,0
6783331809,-6,-3,-4,-2,-6,-9,-9,-6
6783340639,2,1,-2,1,2,0,5,-3
6783340639,-1,-1,5,0,-2,1,-16,2
6783354310,11,7,-4,-3,2,0,1,1
6783354310,-9,2,-2,-1,-1,-3,-1,-1
6783363193,-11,-8,1,0,-2,-11,-17,-5
6783363193,6,-3,1,4,0,11,3,2
6783369283,6,35,3,4,-3,-6,-1,4
6783369283,0,-24,-8,-8,1,4,-8,-1
6783385654,8,4,-7,-5,-6,-8,1,3
6783385654,37,51,20,10,6,-4,11,7
6783391809,-74,-31,-28,1,-8,9,-11,-23
6783391809,14,10,-1,-19,-2,-2,-6,-5
6783400677,13,99,24,17,4,3,-4,23
6783400677,-6,-76,-10,4,-10,-1,10,-5
6783423099,-32,-22,-35,-11,-8,-11,-4,-18
6783423099,2,-36,-22,-11,-2,-5,-1,4
6783424672,-13,73,8,13,-8,-10,-6,-21
6783424672,23,35,5,-1,5,14,29,25
6783429207,-7,-87,-35,-26,12,8,3,2
6783429207,-6,103,23,22,-1,-5,-13,-9
6783453913,23,-54,8,-9,5,4,17,9
6783453913,-34,-56,-28,12,-6,-12,-20,-11
6783454789,35,21,23,-11,10,-3,7,8
6783454789,15,71,8,-15,-7,6,19,13
6783460696,-2,-108,-30,-13,-8,-7,-23,-6
6783460696,-42,-47,2,-10,5,-1,-7,-16
6783474285,11,20,23,26,4,3,-4,1
6783474285,9,-3,26,19,-3,0,6,11
6783483177,-28,-64,-6,-16,0,-16,-14,-10
6783483177,23,0,-52,-13,2,27,-8,2
6783489327,21,39,6,7,-10,-15,11,10
6783489327,-14,-39,-3,17,-2,9,6,-5
6783505675,1,31,9,8,12,10,11,-2
6783505675,-12,36,9,-3,-9,-14,-2,-9
6783511776,-1,3,21,-3,6,6,8,7
6783511776,14,8,5,23,-5,-11,-5,0
6783520705,-3,30,12,-3,9,2,5,-3
6783520705,-15,-27,-26,-45,-11,-17,-2,-12
6783534287,5,37,-1,-3,-10,6,-15,1
6783534287,5,-3,12,15,-3,-17,-5,-5
6783543189,-2,-20,-15,-16,-9,10,13,2
6783543189,1,26,16,52,30,10,3,5
6783549209,2,-34,1,2,17,12,-6,-6
6783549209,-7,-32,-20,-3,-5,-6,-8,-6
6783565677,10,-7,1,-3,-13,-4,10,5
6783565677,1,16,15,-6,-12,2,0,0
6783571716,10,-2,1,13,-13,-13,-23,8
6783571716,-15,-41,-12,-15,0,-2,-1,-7
6783580687,-1,7,-9,-16,5,8,-2,-2
6783580687,3,0,21,17,4,-12,0,2
6783594235,-2,-7,-13,-23,-5,9,0,-8
6783594235,-3,-1,-7,-7,4,-4,-6,-1
6783603168,-11,-1,17,29,-1,4,2,-3
6783603168,0,22,-8,-35,-4,-13,-9,-1
6783609345,-1,10,14,3,-3,-5,5,0
6783609345,-3,6,-4,-12,14,15,-3,1
6783625690,-2,17,-3,12,-6,-3,-3,-5
6783625690,-10,22,-7,-3,-3,2,-2,-6
6783631747,2,40,-6,-39,-12,-10,1,-2
6783631747,-11,-2,-21,-9,8,9,4,0
6783640679,4,12,-3,32,-8,-1,-9,1
6783640679,6,-3,9,-18,30,11,6,2
6783654233,-4,-22,0,4,-11,-6,3,1
6783654233,-7,-34,32,40,-13,-5,-8,-7
6783663148,-7,-38,-35,-67,12,1,-2,-3
6783663148,-7,-9,3,-16,-19,-8,-2,-2
6783676744,6,-23,12,51,11,2,-1,-3
6783676744,-11,-28,-12,-12,-6,-8,-7,0
6783685656,-2,4,5,19,-9,-6,-7,-4
6783685656,3,-2,4,-10,-11,-10,-4,2
6783700660,5,-9,-23,-3,2,2,8,0
6783700660,8,38,12,4,0,-6,0,3
6783702134,-4,7,9,2,3,16,0,0
6783702134,1,-5,0,7,-1,2,-2,3
6783714296,-7,-12,-2,-9,-8,-6,-8,-7
6783714296,7,8,0,4,9,7,14,5
6783729367,6,16,-3,-5,1,-8,-5,-3
6783729367,-14,-10,15,15,-2,-3,-1,-6
6783736807,10,20,12,8,3,3,4,4
6783736807,-3,-19,-2,-23,-6,3,-5,3
6783745640,-13,-2,5,-8,-6,-13,-9,-10
6783745640,6,-6,-7,11,-4,6,1,4
6783760617,0,10,6,-1,3,-3,6,-3
6783760617,5,5,-1,-4,0,-1,-34,2
6783762141,7,-17,3,11,1,-5,6,2
6783762141,1,-11,-5,5,-5,-5,-11,-7
6783774290,0,1,1,-6,-1,6,5,6
6783774290,4,3,-1,-1,2,1,-4,-1
6783783167,-6,-4,-3,2,-1,1,8,3
6783783167,-9,3,5,-2,-3,-9,-2,-6
6783796684,-4,-18,-5,-2,1,8,-15,0
6783796684,11,-9,-9,-8,-5,-10,1,-2
6783805673,-1,-1,-15,-6,-2,0,-5,-1
6783805673,-8,1,-3,0,1,8,15,4
6783820597,-1,0,-2,0,-3,-13,1,-5
6783820597,-4,10,-6,-1,-2,-4,5,-4
6783822122,7,11,1,-1,1,8,3,-1
6783822122,3,9,2,4,-2,-4,-3,-1
6783834285,-12,5,5,4,-2,2,5,0
6783834285,13,7,-11,-16,-5,2,33,7
6783843164,-15,-5,-11,0,3,2,-46,-7
6783843164,11,-8,2,2,-3,-4,-8,-6
6783856699,3,19,-6,-5,1,1,43,13
6783856699,-4,0,-2,-4,-5,-3,-38,-15
6783865689,10,28,19,12,-1,-2,49,16
6783865689,-11,-77,-6,9,-4,-3,-34,-11
6783888055,1,39,-1,-13,0,3,47,4
6783888055,2,-38,-13,-30,5,2,-49,-1
6783889582,17,16,18,30,5,0,16,9
6783889582,12,96,21,30,-11,-8,-31,-8
6783894275,-32,-89,-57,-47,6,-1,-2,0
6783894275,-19,17,-9,4,-2,-27,17,-14
6783903116,18,26,22,-1,-1,26,-10,4
6783903116,-7,-1,9,-10,-6,-7,17,4
6783916624,27,10,-8,-9,-2,-6,-18,-4
6783916624,14,40,10,44,-1,17,12,5
6783925670,-31,-38,-13,-13,0,-18,-9,-10
6783925670,19,55,22,7,12,22,28,14
6783940560,-1,30,17,28,7,-8,-17,-9
6783940560,-18,-86,-14,-21,-4,6,-7,0
6783942244,5,83,10,0,-6,-14,11,0
6783942244,-15,39,-8,9,-7,7,0,-3
6783954251,11,-9,-5,-59,6,-9,-19,-1
6783954251,4,44,2,25,-13,-5,12,-5
6783963150,-24,-21,-18,-24,-7,3,-17,-3
6783963150,-6,-32,-23,8,9,-9,0,-5
6783976800,-9,-26,16,-6,-13,-1,-4,-1
6783976800,-5,23,12,32,-14,-9,1,-5
6783985634,-9,-23,-9,10,10,-2,1,-3
6783985634,6,-5,-21,-50,-2,-10,4,7
6784000605,1,38,17,42,-6,0,-22,-8
6784000605,-19,-37,-24,-61,-9,-5,3,-4
6784002125,14,-21,1,15,-8,-3,3,-3
6784002125,7,-45,-1,5,13,2,7,4
6784014285,4,16,9,48,4,5,-27,-5
6784014285,-4,-19,8,20,18,13,23,3
6784023098,10,-43,-9,-19,0,0,-1,11
6784023098,1,0,-5,-10,-5,16,-18,-4
6784036786,-10,-12,-6,-15,-6,-6,8,3
6784036786,-2,3,3,-3,-5,7,-15,-4
6784045662,2,-9,-7,-7,5,-1,-6,-7
6784045662,0,1,-7,-8,-13,-7,3,4
6784060633,-11,-13,-2,-6,-16,-3,2,-8
6784060633,0,-3,5,15,11,6,-4,0
6784062173,3,-14,6,-1,-1,-8,2,1
6784062173,4,-5,6,-13,-9,-20,-2,2
6784074165,-12,-13,-8,-27,1,16,-2,-9
6784074165,0,5,6,13,6,-3,13,8
6784083139,-1,12,-17,-14,-9,-3,-8,-3
6784083139,7,26,-1,-7,12,7,5,2
6784096591,-3,19,-1,3,-13,-12,-9,-1
6784096591,2,22,-4,-20,-5,0,3,1
6784105688,-5,14,9,8,2,0,-1,-10
6784105688,-2,-13,1,15,2,6,12,4
6784120559,8,5,0,-5,-2,-3,1,5
6784120559,-4,-16,-5,-18,9,2,-1,-2
6784122112,2,-21,-1,33,7,2,-1,-2
6784122112,-8,-11,18,42,2,-6,-2,-2
6784134253,-6,-12,-23,-37,9,8,-3,0
6784134253,6,8,5,1,-14,-10,-6,-2
6784143138,-5,-18,-15,-17,-10,-8,-7,-3
6784143138,-5,-7,-2,18,5,5,2,-3
6784156779,8,0,5,21,7,-5,11,5
6784156779,-5,5,-5,-9,-5,3,-6,-6
6784165607,-3,1,-1,-8,-5,1,2,-3
6784165607,-5,-14,-7,-11,4,3,3,-3
6784180643,0,3,0,11,1,-7,-6,-2
6784180643,6,2,-4,0,4,1,11,7
6784182135,2,15,5,-6,-4,-6,-1,-1
6784182135,1,11,4,-11,-5,2,-11,-2
6784194190,8,10,1,12,1,8,6,3
6784194190,-7,-9,1,-6,-4,-7,-14,-3
6784203183,-6,-1,-5,-7,-3,-9,-4,0
6784203183,-3,-7,-4,-8,-3,9,11,-3
6784216692,7,-4,9,14,2,-1,-27,-1
6784216692,-7,9,1,-3,0,-3,2,0
6784225754,-1,0,-6,-1,-2,2,-20,-3
6784225754,-19,-9,-10,-13,-5,-17,22,-3
6784239890,-2,-9,2,2,-5,17,-7,0
6784239890,19,2,5,0,3,3,3,2
6784254892,-5,3,1,1,2,-10,25,2
6784254892,-8,-15,-9,-11,-9,-10,-13,-7
6784255717,-5,-7,0,5,4,14,18,-3
6784255717,7,-10,1,1,0,-5,-3,-1
6784263112,17,-9,-2,-3,-3,14,2,4
6784263112,-23,4,0,-1,1,-1,-4,1
6784276732,-3,-3,2,6,0,-22,8,-6
6784276732,-10,-3,-3,-2,-2,15,-3,-2
6784285593,12,2,3,1,-3,-2,-2,-2
6784285593,19,21,-1,-3,-1,5,-6,3
6784299945,-2,-11,-1,0,-4,-12,-9,-4
6784299945,3,33,7,4,-2,3,1,0
6784306785,-3,-22,-22,-9,-1,-5,-7,-6
6784306785,-30,-13,-9,-4,-9,-5,-4,-12
6784314258,7,0,3,18,3,-1,1,4
6784314258,8,20,-3,-4,4,-5,3,0
6784323109,-21,14,9,5,0,4,0,-2
6784323109,44,57,23,3,11,5,8,12
6784336759,-18,1,-33,-21,-16,-14,-10,-9
6784336759,-12,18,-13,-23,-9,-5,-6,-6
6784345600,-12,-30,-3,-9,2,2,-6,-5
6784345600,23,41,10,8,2,6,-1,6
6784360019,13,-61,30,39,7,-1,2,9
6784360019,-22,49,-11,-22,3,-3,0,-13
6784366810,-24,9,-18,-54,-11,-7,-3,-1
6784366810,26,42,-17,-16,-11,-12,-4,0
6784374261,29,33,22,69,26,19,13,13
6784374261,-27,-103,19,0,-7,-6,-7,-5
6784383068,21,55,28,-15,-1,-1,8,6
6784383068,-31,-66,-60,-31,-4,-2,-27,-8
6784396735,-11,-39,-11,-14,-4,3,1,-2
6784396735,19,109,25,21,3,-14,-9,0
6784405663,-11,-76,-16,10,-4,8,5,-6
6784405663,-4,-37,9,-10,-4,-4,11,7
6784419846,-2,38,6,-19,-6,0,-6,1
6784419846,11,-7,-9,29,5,-7,-3,-3
6784426762,-3,37,18,-13,-1,-3,-1,-2
6784426762,0,27,-5,-27,-6,-6,-6,-7
6784443108,-30,-22,-6,2,-4,7,-4,-5
6784443108,11,-9,4,-8,-2,-2,10,8
6784444619,11,41,8,12,-7,-6,-13,-3
6784444619,-7,-35,-9,8,7,1,1,-5
6784456800,13,9,-3,-28,5,-4,-3,2
6784456800,4,-29,3,25,1,11,33,11
6784465607,-8,-3,-5,9,10,10,-3,-4
6784465607,6,-13,15,-7,-5,-3,4,6
6784479989,-5,7,-14,-5,-6,-4,-7,-7
6784479989,3,-26,-19,-5,-13,-12,-14,-3
6784486728,-7,-17,6,2,-4,-3,2,-2
6784486728,6,-5,1,-25,7,9,10,1
6784503112,-7,8,-4,-9,-8,-9,-7,-3
6784503112,-4,-9,-5,15,14,22,6,3
6784504574,-2,-8,-1,-6,0,-2,3,-1
6784504574,-1,-4,9,31,4,-7,-8,-3
6784516711,7,19,1,-15,-6,-6,-2,-2
6784516711,-17,-20,-3,-22,-13,-10,-16,-7
6784525666,4,0,-2,-2,-8,-4,2,1
6784525666,-4,0,-15,19,5,5,0,-2
6784539977,0,7,13,10,-3,0,6,2
6784539977,0,-2,-13,-26,4,-2,-2,1
6784546739,2,-1,-1,13,7,4,-1,1
6784546739,-1,10,17,6,-2,-2,-2,0
6784563154,-2,23,17,10,-6,-2,-1,-3
6784563154,5,1,-11,5,1,3,0,2
6784564610,9,18,-2,23,5,-1,0,3
6784564610,3,7,-3,-9,0,0,5,3
6784576755,9,7,-10,-10,-4,-8,-6,-4
6784576755,-2,-10,16,18,13,9,7,1
6784585599,-7,0,-5,2,-5,-12,-9,-7
6784585599,-13,-16,1,11,0,-4,0,-5
6784599976,-3,-6,6,-4,-1,10,0,-3
6784599976,-2,-4,-13,-19,-10,-12,-7,-4
6784606729,4,-10,-10,8,6,-2,0,2
6784606729,-3,13,11,5,-11,1,-4,-4
6784623079,-14,-27,-8,-13,6,1,5,-5
6784623079,2,-11,-11,-6,-12,-12,-16,-3
6784624589,3,-4,-8,-3,-3,5,25,5
6784624589,-3,-15,-6,8,6,2,8,0
6784636761,-1,1,-3,-3,5,10,-2,2
6784636761,-8,-13,-9,-9,-6,-11,-4,-3
6784645589,0,-4,6,2,-3,5,-10,-1
6784645589,-1,-3,-4,-3,-2,-3,-5,-3
6784659984,4,9,-5,-1,1,2,5,-1
6784659984,1,6,7,3,-1,-1,-1,-3
6784666739,-4,-8,-4,1,-1,-8,-15,2
6784666739,-1,-7,-1,5,2,5,12,2
6784683104,-13,-18,-8,-10,-5,-20,-6,-6
6784683104,3,-6,0,2,2,29,27,9
6784684624,-1,-11,0,-1,-2,-7,-7,-3
6784684624,11,-2,-3,-4,-3,5,-9,-3
6784696728,-13,-11,-7,-5,-4,-21,-21,-4
6784696728,-6,-3,3,1,3,10,27,-3
6784705633,1,9,-2,-1,1,6,7,0
6784705633,5,0,1,1,-4,-1,-4,5
6784719816,3,10,-4,-5,-3,1,-12,-4
6784719816,3,12,1,2,1,-6,-3,3
6784726693,19,2,0,-1,1,-1,-2,2
6784726693,-22,3,3,9,-4,-9,-9,-5
6784743084,0,5,-5,-11,-3,3,4,4
6784743084,-20,1,0,-12,-6,-5,-13,-9
6784744590,14,-3,-10,15,9,4,6,-2
6784744590,7,28,16,9,-1,-5,-3,8
6784756783,1,-28,2,-2,-10,-2,0,-4
6784756783,6,34,-7,-7,8,1,-4,1
6784765576,-25,-15,0,6,-15,-7,-10,-12
6784765576,-24,-59,-45,-31,7,4,1,-8
6784779957,24,9,25,34,2,8,9,12
6784779957,4,54,9,5,-5,-8,-7,-3
6784786677,-1,12,-20,-54,-12,-6,1,-5
6784786677,-3,-65,14,23,5,3,4,5
6784803110,-4,2,-13,-10,6,2,0,-9
6784803110,17,-65,0,17,-3,-1,1,9
6784804618,9,56,24,46,7,3,19,7
6784804618,-16,-7,13,14,-3,-5,-25,-7
6784816760,3,66,-10,-41,-5,5,17,1
6784816760,-1,-47,-7,-1,4,-6,-24,-1
6784825600,13,102,23,16,-5,3,-17,7
6784825600,23,-30,16,22,-10,-4,3,-3
6784839857,-5,40,-2,47,26,4,6,1
6784839857,-46,41,-7,-17,-7,5,-9,-20
6784846739,-24,-119,-34,-19,-3,-12,14,-2
6784846739,16,63,9,20,-16,1,-26,3
6784863060,2,49,3,-33,-13,-4,-14,-2
6784863060,-8,-50,-30,1,16,-1,25,-9
6784864570,3,-6,20,74,7,-1,2,6
6784864570,-3,26,-11,-71,-2,3,0,-5
6784876721,1,-15,0,18,-8,-9,10,0
6784876721,8,-7,2,-24,-20,-10,-9,2
6784885566,-13,-8,1,-21,6,3,-20,-5
6784885566,3,15,-12,-10,-14,-13,0,-14
6784899912,8,-12,15,36,14,-6,-11,-3
6784899912,10,45,1,-14,5,4,8,6
6784906770,-13,-24,16,40,11,-4,-6,3
6784906770,-11,2,14,-42,9,15,-3,-1
6784922413,1,-38,-12,-56,-13,-11,-16,4
6784922413,3,-19,15,21,-9,18,26,0
6784929118,0,4,-5,-18,2,-3,15,-9
6784929118,9,9,4,4,5,-5,43,9
6784936716,-13,-31,-3,31,-4,-5,-26,-8
6784936716,2,-1,-3,-58,1,-6,-17,-2
6784945621,5,-10,10,-7,-7,2,2,-1
6784945621,-12,-13,-20,-16,-15,-14,-7,-10
6784959790,-12,-26,16,11,-9,0,7,-3
6784959790,3,6,-6,4,14,-2,-1,5
6784966746,2,17,1,-44,-7,4,0,-3
6784966746,3,13,-8,-5,7,-3,-9,-1
6784983091,2,-1,5,1,-4,-3,4,1
6784983091,-6,-12,-14,0,-2,9,-3,4
6784984605,-3,13,3,5,-10,-5,-10,-4
6784984605,-11,7,-16,-1,11,11,0,-3
6784996656,2,28,-8,8,-2,-4,6,4
6784996656,-2,14,12,19,-7,3,-4,-4
6785005579,4,-2,-13,-19,2,-4,-8,2
6785005579,-9,-22,17,26,-9,-3,1,-4
6785019923,-7,-31,3,6,10,9,5,-5
6785019923,8,-7,-21,-48,-11,-6,-6,4
6785026701,8,0,-8,2,0,-6,-3,1
6785026701,14,7,1,9,13,-1,-2,4
6785043010,-4,-16,2,7,-6,0,2,-3
6785043010,-1,-8,-1,11,2,-2,-5,2
6785044541,-15,-16,4,-14,1,3,10,-3
6785044541,4,11,-1,11,-4,-5,6,-3
6785056734,2,-5,-1,-18,2,8,4,2
6785056734,1,2,12,22,-2,-7,-3,-2
6785065591,0,-1,-12,-10,-5,2,2,0
6785065591,7,7,-3,7,-2,-1,-18,0
6785079920,-12,-14,-14,-22,-7,-8,1,-3
6785079920,-5,1,10,9,0,-3,-7,-6
6785086745,4,2,7,4,2,9,23,3
6785086745,-6,-3,-7,-1,2,1,-10,3
6785103021,5,3,-8,-16,-5,-1,0,-2
6785103021,1,10,3,14,-4,-22,-8,-4
6785104613,-8,-13,-5,-1,3,10,-15,-5
6785104613,8,-7,-1,-1,-5,-2,5,6
6785116686,6,0,-6,-6,2,0,-1,-5
6785116686,-8,-15,-2,9,2,1,22,3
6785125626,-6,0,-8,-8,-3,-5,-11,-5
6785125626,2,6,2,-2,0,1,-18,1
6785139926,-4,2,-7,-3,0,5,-9,-1
6785139926,-6,1,8,9,1,3,8,-5
6785146696,-6,0,-4,-6,-3,-2,-11,-1
6785146696,2,-3,-5,-2,-7,-15,5,-1
6785163037,10,-1,-4,-5,3,17,-4,2
6785163037,-1,-1,8,7,1,-3,-8,-1
6785164573,-6,-12,-7,-5,0,-6,3,-7
6785164573,0,5,2,5,3,7,-13,5
6785176769,-1,3,6,2,-8,-5,1,3
6785176769,4,5,-1,0,4,-9,-7,2
6785185584,15,6,-3,-10,2,12,-3,2
6785185584,-4,5,-5,9,-1,0,-5,-7
6785199820,-17,-5,-5,-12,-2,-3,10,-2
6785199820,1,3,2,7,-7,-1,-11,0
6785206783,-25,16,5,2,0,-7,-1,-10
6785206783,-12,-37,-4,-14,1,4,5,-5
6785222460,11,13,-12,-21,-6,-3,-2,6
6785222460,7,6,5,24,2,-2,-6,3
6785229308,22,-27,3,-4,5,4,3,8
6785229308,-1,57,0,6,-11,-5,8,-6
6785236745,-8,18,5,-9,1,-3,0,-3
6785236745,5,-12,-10,-6,3,4,-5,-7
6785245591,10,36,5,12,-1,-4,-1,3
6785245591,-32,-60,-7,3,0,-3,0,-9
6785259789,9,6,7,1,-1,-1,-1,5
6785259789,-9,-31,-6,-12,-5,0,-9,-3
6785266735,11,48,2,-2,0,0,1,4
6785266735,6,33,9,0,2,1,10,4
6785282435,12,55,15,18,3,1,0,0
6785282435,-20,-52,-31,-30,0,2,-3,-11
6785289193,-2,14,1,23,-7,-7,-7,-5
6785289193,-2,-23,2,-5,-6,-2,-1,-1
6785296713,1,44,-8,-17,0,-1,0,1
6785296713,3,4,-1,-17,1,-5,0,0
6785305597,6,6,4,7,-12,-3,0,5
6785305597,8,52,-11,-11,10,4,-5,-6
6785319935,-26,-102,2,47,-5,0,-10,-10
6785319935,16,6,-11,-39,-17,-14,1,9
6785326664,-22,-7,-20,-12,-2,4,-6,-11
6785326664,32,-19,14,13,10,6,12,10
6785342455,-22,-96,-26,-6,-10,-7,-9,-15
6785342455,-57,4,-4,29,-4,1,-5,-15
6785349130,-1,-1,9,2,-3,-6,-1,4
6785349130,3,-2,-3,-15,-7,-7,-16,3
6785365562,19,7,-4,-8,1,-16,6,-1
6785365562,28,22,15,20,7,18,-3,8
6785367062,-2,-10,3,-11,5,3,5,4
6785367062,-18,-31,-6,-5,-8,-4,-2,-8
6785379249,1,17,0,12,0,-4,-2,-3
6785379249,10,-1,6,8,7,0,-2,-2
6785395639,2,-21,6,21,6,9,8,2
6785395639,6,0,-15,-35,-5,-1,-10,2
6785402319,-8,5,5,-38,7,7,2,2
6785402319,-2,-2,-1,9,-8,-3,3,-5
6785409283,-3,-25,-5,-1,0,-5,2,-2
6785409283,-1,15,9,20,-4,1,1,-1
6785425542,-3,-6,-3,-16,0,1,-4,-1
6785425542,-2,12,3,4,-4,-14,-13,-3
6785427052,-6,-11,-7,-18,-11,-9,-14,-6
6785427052,-1,4,4,12,0,-12,-1,3
6785439924,-3,2,6,15,2,17,9,-3
6785439924,11,8,6,2,20,8,9,7
6785446743,-6,-15,-9,-46,-9,-8,-5,-4
6785446743,-21,-33,1,-19,1,11,10,-11
6785462439,12,10,-4,11,-2,-9,-1,7
6785462439,-2,15,18,13,1,3,4,-2
6785469141,-6,-10,6,7,-1,0,-4,-4
6785469141,4,8,-6,14,1,-1,1,-1
6785485626,-3,0,-4,-16,-3,-5,-4,-2
6785485626,-3,-17,-5,3,-10,0,1,-3
6785487064,6,6,-8,-18,-2,-4,1,-3
6785487064,-13,6,-10,-3,-9,0,1,1
6785499181,-2,-9,-2,-4,2,-2,-4,-2
6785499181,8,8,-5,-12,5,2,4,3
6785508079,3,0,-1,5,-9,-17,-11,-2
6785508079,1,10,12,6,5,17,13,3
6785522433,2,7,-16,-8,1,-2,1,2
6785522433,-3,-2,15,16,2,7,1,-1
6785529218,-4,-6,-7,9,4,-9,-7,-2
6785529218,5,6,2,8,1,-5,5,-1
6785545561,4,19,5,0,-6,-3,-5,0
6785545561,9,1,-6,-12,-10,-7,-5,1
6785547057,-2,-3,7,11,4,6,-3,1
6785547057,-6,-3,-4,-8,0,0,2,-3
6785559207,2,7,4,9,5,9,6,2
6785559207,-4,1,-7,-13,-7,-11,0,-5
6785568071,2,3,2,3,4,6,1,3
6785568071,5,8,2,-9,-5,-6,-7,-4
6785582426,0,-2,5,7,3,-10,-8,0
6785582426,-2,-3,-8,0,-8,7,10,-1
6785589105,-4,3,-10,-6,2,-2,-6,-4
6785589105,8,-6,2,5,3,7,4,1
6785605607,-5,-16,-5,0,-9,-6,-18,-2
6785605607,1,6,1,-7,0,-6,17,3
6785607058,-4,-14,-2,-1,0,10,4,-1
6785607058,-2,-18,2,1,1,-6,10,3
6785619198,1,3,-2,1,-4,1,-11,-3
6785619198,7,5,5,6,4,0,-10,5
6785628087,-7,-8,-6,-6,-1,3,0,-2
6785628087,-22,3,-1,2,-3,-11,-5,-8
6785642366,5,7,3,1,2,3,12,1
6785642366,0,0,-1,-2,-2,-3,-5,-5
6785649220,11,7,1,6,1,-6,-10,5
6785649220,4,5,-1,-1,-1,6,-13,-1
6785664644,-12,-9,-2,-1,-3,-4,6,-1
6785664644,13,1,2,1,0,4,1,-1
6785673085,2,11,1,1,0,-1,-11,1
6785673085,-13,-4,-6,-7,-4,-7,-4,-1
6785679275,-5,-3,-5,-3,1,3,10,-2
6785679275,-10,7,0,-1,-2,8,-6,-2
6785695615,4,1,6,14,2,0,6,-5
6785695615,26,27,4,-6,-7,0,-6,7
6785702298,-6,-3,3,23,8,-5,3,-3
6785702298,-2,-11,-18,-16,-11,-10,-6,-1
6785709271,1,5,7,-6,0,6,7,-2
6785709271,5,-1,0,21,-2,-6,1,1
6785725513,-46,-10,-6,-13,14,11,6,-5
6785725513,28,10,11,6,-1,1,0,7
6785727045,-27,24,-11,-1,-10,-7,-13,-12
6785727045,22,53,11,5,0,-5,14,6
6785739154,5,-43,-30,-54,-23,-24,-8,-1
6785739154,-17,-76,12,32,5,19,-13,-3
6785748116,2,14,-23,-44,12,-10,-2,1
6785748116,-11,19,25,44,-3,7,12,-14
6785762428,15,19,7,27,6,-15,16,12
6785762428,20,71,15,-8,-3,14,0,5
6785769253,-20,-56,-21,14,11,-17,21,4
6785769253,-33,-76,-10,-8,6,60,-21,-10
6785785582,9,21,6,34,14,-25,3,-1
6785785582,-4,-23,-30,-62,-2,-40,-24,-6
6785787069,5,-1,2,-2,-4,68,23,10
6785787069,4,44,10,3,-4,-27,-18,-3
6785799071,16,-89,-6,0,-5,11,6,4
6785799071,-15,79,23,11,-3,-24,-16,-8
6785808079,-6,-2,-2,4,-9,-11,0,-4
6785808079,-18,-105,-29,-38,-13,-17,-2,-3
6785822393,28,74,25,3,-12,12,-8,2
6785822393,-16,-10,-10,20,13,13,15,-4
6785829134,-3,-16,-7,-26,-14,-16,-9,-5
6785829134,2,-16,-6,11,6,7,3,3
6785844829,0,9,-8,-9,-3,-11,-12,-3
6785844829,-6,-16,-4,-4,-12,6,6,-1
6785845553,15,1,30,59,21,6,-3,-1
6785845553,7,-11,-30,-50,1,-1,10,1
6785867259,-14,6,6,-15,-9,16,1,1
6785867259,-3,-18,-11,1,-2,-1,3,0
6785868151,13,-4,-4,0,-4,-2,-8,-1
6785868151,4,29,1,24,-3,-11,-3,-2
6785883092,-3,-10,7,-7,1,-3,0,1
6785883092,-15,-15,-7,-20,1,6,4,-6
6785889163,-2,11,17,13,-6,-13,-6,1
6785889163,5,9,-5,41,0,-3,1,3
6785904767,14,23,-25,-42,-12,3,-4,0
6785904767,-12,-23,11,33,3,-3,-1,-6
6785905519,7,20,14,-44,-9,-3,4,1
6785905519,-4,-1,-19,-20,6,-3,-1,-2
6785927295,12,9,15,22,-10,3,-4,0
6785927295,3,9,-10,-8,9,4,8,6
6785928089,-7,2,14,72,9,-2,1,-2
6785928089,-5,2,-14,-55,5,7,-4,-2
6785943126,-10,-15,-9,-26,-5,1,0,-2
6785943126,8,7,-9,2,-11,-8,2,2
6785949188,-2,6,-4,-7,-2,0,-12,-5
6785949188,-1,-4,14,26,3,-8,8,3
6785964807,0,8,-7,-13,2,4,-9,-3
6785964807,3,0,2,-1,-7,3,1,0
6785965530,-15,-12,-17,-7,3,0,1,-2
6785965530,8,12,7,-1,-4,-6,-1,-2
6785987358,-4,5,16,20,0,0,-2,-4
6785987358,-3,-6,9,-15,3,1,1,2
6785988197,5,-5,-6,7,2,-4,1,0
6785988197,2,-12,-19,-23,-4,-2,8,5
6786003120,-8,-1,6,15,-2,-3,-8,-3
6786003120,10,15,4,13,-4,-3,7,2
6786009079,-7,-23,-14,-37,-6,1,-9,-5
6786009079,0,5,9,1,-4,-4,5,-1
6786024896,-3,-2,-2,29,11,14,-1,0
6786024896,0,-7,-8,-18,-7,-9,-2,0
6786025575,15,6,-17,-22,-1,2,1,2
6786025575,-7,8,7,8,-4,-13,-9,-4
6786047292,-4,-15,-7,-2,0,1,0,-6
6786047292,-16,-21,1,-1,2,-1,-6,-6
6786048093,-8,-16,13,8,-3,3,-4,1
6786048093,8,1,-1,-3,-2,-8,-2,0
6786063077,-1,-15,2,-6,0,4,8,0
6786063077,1,-1,-6,5,3,3,0,-1
6786069236,2,14,2,-3,-6,-5,0,-1
6786069236,-1,4,1,-4,0,-1,-6,-2
6786084861,0,2,-7,-1,-1,4,10,0
6786084861,6,1,-2,5,2,-2,5,-2
6786085574,-11,-2,-1,-4,-3,-5,-30,2
6786085574,-9,-22,3,2,2,4,15,-6
6786107368,5,5,1,5,3,0,2,3
6786107368,19,10,-2,2,0,-7,-6,2
6786108051,1,4,-6,-13,-2,-4,4,-2
6786108051,-5,7,6,2,0,5,-8,-2
6786123102,-10,5,-2,-1,-3,-8,-9,-7
6786123102,0,3,2,5,1,-2,-5,-2
6786129221,0,11,0,2,3,0,12,1
6786129221,10,-4,6,15,2,-1,-10,4
6786144180,-16,19,-10,-17,2,0,10,-2
6786144180,4,2,4,-6,-2,0,-6,1
6786151577,0,-8,-9,10,-1,-1,5,2
6786151577,5,79,15,18,2,0,-1,2
6786167364,-14,-92,-9,-17,-1,2,-6,-10
6786167364,-17,50,2,-5,-2,0,-1,-1
6786168066,28,51,16,19,14,3,6,1
6786168066,-16,-62,3,-8,2,5,4,3
6786183100,-26,-54,-30,4,-12,-12,-9,-8
6786183100,24,62,31,1,1,0,7,8
6786189161,-24,0,-20,-31,-6,-1,-5,-11
6786189161,6,-70,-4,-4,-2,-2,-7,0
6786204235,24,72,18,16,4,0,6,3
6786204235,-4,12,-1,3,-1,4,0,2
6786211693,14,20,6,16,-6,-6,-21,-8
6786211693,-38,80,-18,-36,-15,-10,-13,-14
6786227335,6,-15,-6,1,5,1,-3,0
6786227335,11,-4,-4,7,1,-2,-8,5
6786228047,-4,-16,-7,-7,-3,0,13,4
6786228047,33,42,13,8,-1,1,-14,-4
6786243037,-38,-37,0,-30,5,1,-20,-7
6786243037,-14,27,-4,12,-7,-6,5,3
6786249228,1,-84,-17,22,1,16,6,-4
6786249228,-5,14,-8,-17,-8,-7,12,4
6786264199,16,56,41,18,-12,-9,-11,4
6786264199,-8,-105,-31,-11,-4,5,-5,-9
6786271707,1,13,-13,-56,0,0,0,7
6786271707,6,-65,-10,9,17,9,8,2
6786287314,13,56,12,22,0,10,9,1
6786287314,-9,-2,4,20,4,-12,-1,0
6786288017,-2,26,9,13,-12,-12,2,0
6786288017,-9,-8,1,25,-11,-12,-8,-3
6786303022,-4,-23,-5,-35,19,9,7,-1
6786303022,1,-20,-13,-4,12,6,12,-4
6786309078,9,-15,6,-4,-4,5,-11,7
6786309078,3,-25,-2,0,-1,0,8,3
6786324052,-10,-1,1,15,-7,-7,-5,0
6786324052,0,-12,4,-1,-12,-6,-16,-9
6786331658,-2,-8,-14,-48,4,2,8,-4
6786331658,4,-2,3,22,7,1,4,3
6786347330,4,-1,-6,-5,-4,4,2,-2
6786347330,-3,0,13,9,-3,-1,-8,-2
6786348029,4,-3,0,9,4,-2,7,1
6786348029,-12,-3,5,-14,-12,4,-5,-4
6786363081,4,14,5,35,29,-7,3,-2
6786363081,-3,1,-11,-24,-7,4,5,2
6786369178,-13,-6,25,28,-10,-6,-4,-7
6786369178,4,23,-27,-20,12,4,3,1
6786384204,7,20,-13,-29,-20,-2,-1,3
6786384204,-5,3,-1,15,10,1,0,0
6786391682,0,3,1,1,0,-6,-1,0
6786391682,-5,-7,23,28,3,2,-6,-2
6786407358,-10,-19,-3,3,-13,-9,-7,-4
6786407358,-5,-17,3,-12,-1,0,-3,-6
6786408052,3,-10,-3,5,7,5,7,4
6786408052,0,-5,-6,-3,-2,-4,-3,0
6786423045,10,8,9,-30,-2,-3,1,0
6786423045,-10,-17,-12,-3,-19,-12,-4,-5
6786429202,-2,1,-7,-8,-1,-7,-1,-2
6786429202,3,4,-10,-1,14,15,2,0
6786444144,2,-5,-12,-1,-9,-4,-7,1
6786444144,-7,-3,5,3,5,2,-5,-7
6786451695,-10,-4,10,-1,-3,-1,6,1
6786451695,15,7,-3,5,-5,-1,5,2
6786467118,-9,-4,-4,13,-7,-7,-6,1
6786467118,1,-11,-12,-11,9,-4,-9,0
6786474209,-1,5,-9,8,-4,2,1,-2
6786474209,-17,-14,-9,-23,-2,-1,3,-7
6786483021,7,-16,-4,7,-2,0,-5,-3
6786483021,2,-5,2,-5,2,1,5,6
6786489051,0,-5,-1,0,-1,-3,-6,-1
6786489051,-6,-1,8,-1,-7,-7,-1,-2
6786504213,-2,-1,-5,-3,-2,5,-11,0
6786504213,5,10,3,-3,-3,0,3,0
6786511682,-11,-25,1,17,4,5,-19,-5
6786511682,0,-5,-2,-7,0,3,9,1
6786527286,8,-1,-5,2,5,-5,11,4
6786527286,-8,1,-5,-9,-5,8,4,-1
6786528094,1,14,7,-1,2,-2,-2,-1
6786528094,6,16,-2,-5,-8,-11,-12,-3
6786543015,-2,1,-1,3,0,-7,-1,-3
6786543015,-5,-12,2,-1,1,11,5,0
6786549173,2,-3,7,0,-4,-6,6,-4
6786549173,4,-11,5,6,-2,12,-6,2
6786564091,-1,7,-10,-14,4,-3,3,1
6786564091,14,4,-6,-6,-5,-3,0,0
6786571680,-23,2,-3,-2,1,-2,-7,1
6786571680,1,0,4,6,-6,-8,-2,-4
6786587328,6,22,9,9,1,2,3,4
6786587328,-2,-11,-6,0,4,-1,-3,-3
6786588039,26,22,-9,-9,-4,-2,5,-2
6786588039,-24,5,1,-9,-4,-6,-3,-2
6786603058,-16,-4,0,-4,-5,5,2,3
6786603058,10,-31,-5,4,0,-3,-3,-3
6786609177,8,26,15,-5,-6,0,4,5
6786609177,7,-11,1,14,8,4,2,0
6786624175,14,101,25,29,1,3,0,-5
6786624175,-81,-101,-77,-54,-7,-11,-11,-18
6786631682,51,117,24,1,4,5,15,16
6786631682,-32,-54,-18,-12,-4,-3,-9,-12
6786647342,12,-84,0,17,-3,2,-1,1
6786647342,3,109,8,-6,1,1,0,-3
6786648044,32,17,10,21,-4,-1,3,7
6786648044,-31,52,-1,-36,11,-2,-3,-8
6786663050,9,58,39,25,9,8,7,8
6786663050,16,24,-15,-6,-9,-5,-4,-2
6786669197,-14,-12,4,16,-1,-6,-8,-4
6786669197,7,6,-16,-30,-15,-4,-5,-4
6786684225,-37,-55,-18,-4,-1,-3,-1,-2
6786684225,76,70,72,20,14,11,12,31
6786691691,-96,-27,-25,-7,-15,-12,-19,-38
6786691691,20,12,-3,27,5,3,8,9
6786707316,0,-80,-54,-42,-8,-6,-6,-10
6786707316,18,101,25,15,-4,-4,2,4
6786707976,12,-13,9,22,-8,-2,-2,4
6786707976,-5,-3,8,0,6,0,0,-2
6786723022,-1,47,-1,-26,6,0,0,-5
6786723022,-11,-84,4,15,-1,2,4,0
6786729151,-32,-54,-28,-37,-2,-4,-6,-15
6786729151,-21,33,1,5,-13,-7,-4,-3
6786744161,-8,3,17,50,3,0,3,5
6786744161,-36,-54,-38,-54,0,-4,-7,-17
6786751634,1,-24,-3,-9,4,2,1,0
6786751634,41,41,16,24,-7,-5,4,16
6786767339,7,36,1,-8,6,7,1,-1
6786767339,-16,-30,10,23,-3,-1,1,0
6786767978,14,12,-6,-8,5,8,5,3
6786767978,-10,-63,-17,-26,-12,-9,-7,-6
6786783040,13,-17,1,4,-14,-6,1,2
6786783040,-3,29,5,24,15,7,-2,-1
6786789025,-4,-25,-5,-1,5,2,2,2
6786789025,15,-8,-2,-4,4,-3,-3,1
6786804198,10,-4,1,-12,-2,1,-3,-2
6786804198,-20,-45,-12,-1,-8,-6,-8,-3
6786811684,1,-5,-6,-12,-3,0,13,-1
6786811684,3,-25,-1,15,-2,0,-3,7
6786827331,-13,-21,-13,-10,4,-6,-2,-7
6786827331,4,11,-6,1,-6,-7,-5,-1
6786828021,0,8,11,6,5,-1,-4,-4
6786828021,4,22,11,8,-4,-4,-2,-1
6786843040,-12,1,-25,-39,-14,1,-2,-4
6786843040,1,-7,2,12,11,8,3,-2
6786849118,9,2,1,-5,-2,-5,-6,2
6786849118,-2,5,7,-1,-3,-2,1,-1
6786864140,5,-1,1,-7,-10,-13,-7,-3
6786864140,4,15,17,11,-2,-3,1,-1
6786871660,-1,-5,-9,9,7,8,2,3
6786871660,0,5,-1,9,3,2,-2,-3
6786887245,2,16,-4,-17,1,0,2,-3
6786887245,10,24,17,19,0,1,7,6
6786888081,2,-3,4,-4,5,6,-1,0
6786888081,-8,-15,-1,9,5,0,-2,-2
6786901525,-11,-16,1,-14,-2,-2,-9,-6
6786901525,9,6,-9,-13,-9,-5,4,2
6786909016,5,5,6,-10,-3,-3,0,0
6786909016,0,-1,-9,-40,-10,-10,-6,-1
6786923983,-3,-2,3,50,7,12,5,-3
6786923983,-5,-21,-7,-10,3,2,-8,-2
6786931597,-6,-16,-4,-8,-14,-15,-3,-6
6786931597,7,3,-4,8,5,14,-11,4
6786947317,5,8,17,5,-1,-16,6,1
6786947317,0,-1,10,-6,7,1,-22,-1
6786948064,1,1,-3,2,-4,-11,-13,-4
6786948064,-2,-4,11,9,0,5,17,-1
6786961626,-1,-14,-25,-49,-11,-6,-1,-3
6786961626,-5,-10,-17,-1,-8,-24,-22,-4
6786969173,0,1,12,34,10,42,3,1
6786969173,-5,-2,-5,-28,3,9,-38,-6
6786984181,-6,-7,23,14,-7,-32,34,2
6786984181,8,3,-4,-15,-12,22,7,-3
6786991652,-6,2,-21,-20,-11,-38,-24,-4
6786991652,-3,-10,4,8,3,15,-5,7
6787007333,0,-8,-5,5,0,15,-17,0
6787007333,0,14,5,-12,-1,-14,-2,-3
6787008024,5,-11,-5,0,-5,6,49,10
6787008024,-3,0,9,14,-2,-15,-33,-14
6787023020,-3,-7,-1,-5,3,8,43,7
6787023020,3,-2,-4,7,-1,-1,12,-1
6787029143,-3,-1,7,7,5,2,-10,4
6787029143,1,3,-12,-7,-4,-9,11,-5
6787044145,5,8,-5,3,-1,-5,-6,-11
6787044145,-4,-5,1,5,0,19,28,9
6787051551,4,-6,1,-1,-1,1,16,2
6787051551,0,-1,-6,-6,0,-2,-14,2
6787067318,15,8,1,4,0,2,11,-3
6787067318,-9,7,7,6,2,-1,-13,-1
6787068059,-20,1,-4,-11,-3,-6,-18,-3
6787068059,-22,-2,-1,3,0,-1,20,-7
6787081607,20,16,2,7,0,13,-29,1
6787081607,-4,4,-2,-3,-2,-18,-8,-5
6787089159,1,-8,-4,-5,-2,8,-3,2
6787089159,17,1,-2,-1,-4,-11,18,-5
6787104161,-14,3,2,4,1,14,9,12
6787104161,-5,-3,-4,-6,-4,-1,-7,-2
6787111609,44,-3,-5,1,0,1,-3,-3
6787111609,-37,4,0,16,0,-4,16,-2
6787126658,6,0,0,-13,1,-4,-17,-2
6787126658,-30,-28,-20,-13,-6,-3,-1,-9
6787134856,-1,21,9,10,-3,-4,-1,1
6787134856,62,36,8,1,17,12,6,8
6787141664,-27,-28,-7,29,6,2,-4,-3
6787141664,0,-11,-14,11,3,0,-6,-10
6787149164,10,38,6,-6,-14,-12,-5,3
6787149164,4,13,0,-28,-1,-7,1,-3
6787164151,-17,-29,-17,-5,-7,2,-7,-2
6787164151,26,79,25,-5,-5,-5,6,7
6787171583,-18,-98,-46,-13,6,-3,-7,-3
6787171583,-15,86,-2,10,-7,-3,2,-6
6787186673,-8,-16,-16,-5,-25,-10,-14,-2
6787186673,-7,10,22,-11,31,9,4,-4
6787194820,0,55,47,-13,-7,-3,-1,-2
6787194820,32,59,37,38,8,7,8,13
6787201515,-4,54,-53,-20,-11,-10,-12,-11
6787201515,27,-59,-25,-38,6,9,10,9
6787209145,-8,-28,21,-32,-3,-7,-9,-9
6787209145,7,-28,-35,-23,-8,2,9,9
6787224137,-15,50,44,38,8,0,-4,-1
6787224137,81,-55,29,12,-4,1,7,27
6787231616,-73,-74,-24,17,-4,-9,-11,-20
6787231616,-21,20,-13,-3,-2,4,1,-2
6787246673,-7,16,30,-4,5,-3,-1,2
6787246673,28,22,-5,5,-12,-10,-7,-2
6787254810,35,50,0,-9,9,16,21,14
6787254810,-5,-44,15,13,-8,-7,-15,-3
6787269772,-24,-14,-16,-42,-4,0,9,-9
6787269772,-24,-9,-7,57,14,-2,-30,-7
6787270460,24,30,7,16,-3,3,6,6
6787270460,-20,-28,-21,-38,5,-6,0,-9
6787284150,38,2,13,12,7,15,1,7
6787284150,-25,-11,7,18,7,-16,-24,-13
6787291625,1,2,-14,-19,-12,4,-18,-3
6787291625,-6,-54,3,18,-3,-10,1,-1
6787306683,8,-44,-2,-1,3,3,-25,12
6787306683,-21,-4,-6,-14,-14,1,11,-5
6787314826,-17,-18,-15,9,2,-11,-11,-7
6787314826,1,-29,-1,-10,-1,1,-3,-6
6787329773,12,-11,-3,3,4,10,2,-1
6787329773,-20,4,-18,-9,-13,-2,1,-1
6787330499,0,3,9,3,-6,-2,5,1
6787330499,-5,-31,-8,-22,12,3,-4,-5
6787344150,1,13,15,18,14,-10,-2,0
6787344150,-16,-1,-19,-21,-18,6,11,2
6787351677,5,6,3,12,5,3,3,-2
6787351677,-11,-21,-23,-11,-3,-3,4,-4
6787366586,2,-1,-10,0,-3,-3,-2,1
6787366586,-8,35,16,3,-4,-7,2,-7
6787374766,8,34,-8,2,12,6,4,5
6787374766,7,45,9,-1,-11,0,-1,4
6787389825,8,8,1,6,2,3,5,0
6787389825,-11,5,3,-38,-3,-7,-5,-3
6787390483,4,6,-17,-4,-4,-2,5,-1
6787390483,7,-4,20,42,4,11,9,11
6787404121,0,-18,-3,-8,11,-2,1,-7
6787404121,13,14,12,11,4,-3,18,5
6787411672,-17,-15,2,-1,-10,-1,-5,-4
6787411672,6,-25,-25,-7,-6,-14,-8,-7
6787426642,-5,-9,0,-8,-16,-4,-11,1
6787426642,3,7,16,28,13,-10,8,2
6787434800,-8,-4,-10,-4,1,21,4,-7
6787434800,-6,-12,-4,-11,-15,-6,-6,-5
6787449779,-1,6,-1,-3,-9,-17,-5,-8
6787449779,-4,-4,-10,1,-1,-2,-34,-1
6787450429,5,-17,-3,-9,-2,-13,-2,3
6787450429,-3,5,15,6,-2,20,-10,-1
6787464085,-6,-16,-1,-2,7,2,8,0
6787464085,-11,-17,-10,-9,-4,4,17,-9
6787471538,1,0,-1,0,-3,-7,-4,-1
6787471538,-5,-2,0,-2,6,-1,-2,-2
6787486654,4,4,-1,0,2,0,8,6
6787486654,-12,-12,-10,-4,-8,0,-3,-9
6787494826,3,0,21,12,6,10,8,-4
6787494826,3,-19,-4,-1,2,-7,-15,9
6787509795,0,-9,-3,-12,-6,1,-5,-4
6787509795,11,5,-4,-1,-5,3,0,4
6787510483,10,14,6,3,4,0,6,9
6787510483,-21,-1,3,-4,2,-4,-13,-10
6787524040,5,-2,-2,-2,-4,-6,-2,-4
6787524040,0,-9,-3,0,-2,5,-6,1
6787531641,1,1,8,2,0,1,-3,-1
6787531641,-6,-17,-4,-6,-7,-3,6,-3
6787546632,-6,0,-2,-2,1,5,-1,0
6787546632,-17,-5,0,-5,-3,-2,6,-8
6787554810,7,5,3,1,1,-8,2,1
6787554810,2,19,8,4,3,2,10,7
6787569826,3,2,-6,-4,-3,-4,-9,-1
6787569826,4,4,-6,-7,-5,-2,2,4
6787570483,-18,0,4,12,0,-2,-1,-4
6787570483,-6,0,-12,-16,-1,-1,9,-2
6787584135,3,-2,1,-2,-2,-4,-5,-3
6787584135,16,28,4,2,-3,4,1,4
6787591633,-8,2,-2,-6,3,-1,-6,-1
6787591633,45,52,23,26,4,5,15,17
6787606640,-28,15,-15,-7,-6,-6,-7,-16
6787606640,-31,23,-17,-29,0,5,5,-2
6787614791,-9,-25,-1,-3,-5,-5,3,0
6787614791,4,5,10,2,-1,-5,-5,-4
6787629797,10,-32,22,47,-4,-5,0,5
6787629797,25,-20,-12,-29,0,3,4,2
6787630502,-21,62,-4,-24,-4,-3,-7,-8
6787630502,-17,9,-46,-33,8,3,2,-7
6787644139,9,37,14,-18,-11,2,2,2
6787644139,-3,-74,2,43,5,-1,0,-4
6787651642,24,100,19,23,-10,-8,-2,15
6787651642,-23,-102,2,0,2,-5,-6,-11
6787666649,-3,5,-21,-15,-6,-3,4,0
6787666649,-14,-34,26,-7,5,5,2,-1
6787674830,27,30,-21,-9,10,6,5,8
6787674830,79,65,35,18,-1,10,45,19
6787689863,-73,27,-18,19,5,-1,-40,-20
6787689863,70,37,19,9,9,4,7,13
6787690500,-33,-16,-3,8,-8,-7,-7,-4
6787690500,-75,-20,-18,-30,-12,-13,-18,-22
6787704122,25,32,16,17,5,7,17,7
6787704122,36,108,28,22,7,12,27,18
6787719705,-47,-81,-53,-44,-17,-16,-21,-27
6787719705,20,54,19,12,-5,-1,-4,8
6787726659,37,-33,6,4,17,12,21,10
6787726659,-55,44,-26,-9,-17,-15,-27,-23
6787734800,57,-23,23,-10,12,5,23,6
6787734800,-64,-44,-28,-33,-11,-7,-58,-4
6787749685,0,-29,7,33,16,14,16,5
6787749685,2,62,14,-30,-4,-5,5,6
6787750536,19,-76,-2,58,-1,-9,-10,-4
6787750536,5,32,-12,-17,6,6,7,-2
6787764171,9,5,-4,-15,7,-2,-5,-1
6787764171,-7,-63,-5,25,-6,3,2,-1
6787771583,-1,-3,-1,-49,4,-1,-9,-1
6787771583,16,-8,6,45,2,-1,11,1
6787786634,2,-26,9,18,-9,-5,4,2
6787786634,-35,-47,-26,-31,-14,-10,-12,-15
6787794702,-16,-19,-3,-2,-7,2,-2,-3
6787794702,15,-18,2,-3,7,-4,9,-1
6787809828,12,0,0,-12,-1,5,1,2
6787809828,-22,-26,-11,9,6,-5,-19,-9
6787810508,-7,19,11,3,0,7,33,0
6787810508,11,0,-20,-30,-6,-2,6,4
6787824080,10,26,16,31,0,-4,-1,4
6787824080,2,-10,-17,-26,5,-2,-5,-5
6787831583,-8,2,7,-4,14,8,-4,4
6787831583,-11,2,27,91,-19,-9,2,-8
6787846583,-15,-17,-31,-66,12,-5,-3,-7
6787846583,-4,-25,3,-2,-11,7,1,-1
6787854804,3,4,-9,1,-2,-7,-6,2
6787854804,-4,7,17,-5,-6,3,-4,-3
6787869718,0,19,29,22,-9,6,1,-1
6787869718,13,35,-53,-29,18,3,5,9
6787870452,-5,6,-13,19,-4,-2,-5,-3
6787870452,2,11,1,-49,3,-3,-3,-2
6787884069,-3,-28,-5,21,-15,-3,1,5
6787884069,6,-3,15,-5,-10,-5,0,-1
6787891464,1,-5,5,28,19,2,-2,-1
6787891464,4,-23,-4,26,1,-4,-4,-1
6787906574,-2,3,-16,-55,-4,-6,-3,-2
6787906574,-3,-17,5,-11,-7,-3,-4,-6
6787914657,14,4,12,-3,-10,-7,-9,-1
6787914657,-11,-26,7,15,0,4,3,6
6787929660,-1,1,-7,-30,2,-3,0,-8
6787929660,1,-10,11,23,-6,-4,4,2
6787930518,-31,-2,-7,-8,-7,-3,0,-3
6787930518,-5,-10,-15,-18,4,4,-8,-5
6787944094,-3,5,-8,1,-10,-5,-1,-1
6787944094,-2,-1,5,14,1,-3,-7,-1
6787951594,5,2,9,14,4,5,8,-1
6787951594,8,-2,-9,-6,-3,-6,-8,0
