timestamp,emg1,emg2,emg3,emg4,emg5,emg6,emg7,emg8
6106583662,-5,110,-27,-12,-6,-3,-2,0
6106583662,17,2,11,6,3,-3,-2,0
6106584501,3,-72,-2,-11,-4,-3,0,0
6106584501,-7,87,-1,-5,-7,-4,-2,-2
6106585381,3,37,18,-1,-2,-1,-1,-1
6106585381,-5,-13,-5,-12,-10,-11,-10,-8
6106589437,-1,23,-7,0,3,4,5,5
6106589437,2,41,7,6,1,-1,-1,-3
6106595337,16,-84,8,10,3,2,3,5
6106595337,-5,-33,16,-5,-3,-2,-3,-2
6106604038,7,67,-3,-4,4,5,4,0
6106604038,0,-17,-1,2,0,-3,-4,-3
6106611703,-12,-58,-3,-1,1,3,1,-4
6106611703,3,56,-6,6,3,0,1,2
6106625280,-10,-9,-1,2,1,-2,-5,-7
6106625280,1,-68,-9,2,-4,1,8,6
6106636794,4,9,6,-4,2,4,4,2
6106636794,0,24,-23,-9,0,1,1,0
6106640254,-7,-35,-14,2,-5,-3,-6,-4
6106640254,-4,-2,18,0,0,-2,-1,-5
6106655449,-6,19,-4,0,-4,-5,-6,-9
6106655449,-5,-30,-1,-1,3,7,3,1
6106702080,6,86,1,-1,3,1,1,-1
6106702080,-12,-90,-6,1,-1,-2,-3,-4
6106702852,3,-66,8,-3,-9,-6,0,1
6106702852,-1,73,-34,-4,2,0,0,0
6106703667,-17,-104,16,-1,3,7,1,-4
6106703667,7,-56,-18,-24,-10,-6,-4,1
6106704375,-4,82,-14,12,19,14,10,1
6106704375,-7,14,23,-3,-14,-8,-8,-8
6106715020,6,-59,-8,12,3,-7,-10,1
6106715020,-3,54,17,-1,-2,-3,-1,-1
6106722533,1,19,19,0,-2,2,3,-3
6106722533,1,-67,-8,-6,3,0,1,1
6106731473,2,4,-6,0,-5,-1,-4,1
6106731473,5,52,14,10,2,-1,0,1
6106745063,-5,-66,-19,-5,1,0,-2,2
6106745063,0,-51,1,1,1,5,1,0
6106754008,7,40,11,-6,-1,-2,4,3
6106754008,-4,-29,-14,-4,-8,-6,-4,-4
6106760077,2,-35,7,5,3,2,2,-1
6106760077,-5,15,-7,-2,-1,-4,-1,-1
6106775108,0,-3,9,-3,-6,-3,-1,1
6106775108,-1,0,2,-7,5,6,2,-1
6106782535,-4,11,-2,2,-4,-6,-4,-3
6106782535,5,8,-4,29,7,1,2,1
6106791511,-1,-14,-3,-13,-7,-5,-2,-3
6106791511,1,10,8,1,3,1,-3,-1
6106804982,2,16,0,-4,-4,-9,7,2
6106804982,-4,-25,14,-8,-4,11,-3,1
6106813995,-4,-16,-10,3,0,-7,1,-2
6106813995,1,29,0,9,2,0,3,-2
6106820079,-2,-8,-8,-15,-5,-4,-11,-6
6106820079,0,-13,0,-3,-4,-8,-2,-2
6106835045,-2,15,-10,0,1,9,4,-4
6106835045,-1,4,14,1,-3,-5,-3,0
6106842618,-4,6,-17,0,-3,-7,-2,-7
6106842618,3,-5,2,-4,0,3,-21,3
6106851504,5,6,2,4,2,18,16,4
6106851504,-7,-43,-12,-4,-2,0,2,0
6106865018,6,-13,11,6,-3,1,-2,1
6106865018,-7,13,-8,10,1,-6,-1,-5
6106873990,-1,-9,-9,-2,-2,-6,-10,-4
6106873990,-1,-6,12,6,2,4,-5,0
6106880088,4,14,-17,-2,-1,-8,2,1
6106880088,5,-2,32,5,-2,0,3,2
6106896501,1,-18,-21,-16,-2,-4,-4,-1
6106896501,-12,-4,-16,-5,-2,-4,5,-1
6106902496,-15,-6,-53,0,-2,4,-16,-2
6106902496,12,-17,-20,-23,-5,-2,6,1
6106911510,3,-7,26,10,-1,-8,2,1
6106911510,10,8,18,18,15,10,4,0
6106925097,-19,-37,2,3,-2,5,3,-3
6106925097,5,-10,28,0,4,-9,9,0
6106933990,0,19,-7,-4,-4,2,8,3
6106933990,2,-14,-11,-12,-9,3,-21,2
6106940113,12,-10,12,-2,-4,-11,3,1
6106940113,-28,31,8,21,4,3,4,-3
6106954995,-4,-10,30,-10,7,-6,-4,-5
6106954995,8,117,-31,-5,-3,-7,-8,-5
6106962438,1,81,11,0,2,9,13,4
6106962438,9,-54,0,-12,-12,-8,-8,-4
6106971524,-6,-56,-2,10,1,-4,-3,-4
6106971524,-5,6,10,-1,0,0,2,1
6106985083,0,-73,-8,-1,4,-1,-8,-2
6106985083,2,-47,-12,-2,-1,-1,3,-3
6106993991,-3,86,-36,-20,-11,-3,-4,-3
6106993991,4,47,-19,-6,-3,-2,7,-3
6106999949,17,-39,43,1,3,-2,-2,5
6106999949,-26,-45,-8,-1,4,8,-7,-8
6107016500,1,42,-18,-3,-2,3,16,-1
6107016500,-14,-115,10,-2,0,1,20,4
6107022603,44,-45,29,-9,-18,-11,-20,-2
6107022603,-16,6,0,26,17,15,0,8
6107039013,-13,-87,-13,-7,2,-4,-13,-4
6107039013,-5,-79,4,7,-5,1,0,-3
6107045075,-11,30,3,-9,-3,-9,12,-3
6107045075,12,40,-9,-10,-15,-3,-6,-6
6107053971,18,-20,21,-2,1,5,-3,3
6107053971,1,18,-29,-10,-1,-8,-22,6
6107060065,-3,60,-22,10,10,14,36,3
6107060065,-7,-9,-1,-8,-3,-7,6,2
6107075161,-24,-9,5,2,-2,-5,-3,-4
6107075161,11,18,8,-6,-14,-8,-12,-6
6107082492,3,5,27,-1,-2,-4,-10,1
6107082492,3,-39,-37,4,10,5,4,-1
6107091488,-15,-4,-2,-10,-8,-6,2,-6
6107091488,2,-28,19,-1,-1,0,4,5
6107113858,-13,-33,-39,-3,0,3,-10,-4
6107113858,-9,8,-1,-5,-8,-10,8,-3
6107115517,10,-4,-7,-9,9,4,-16,1
6107115517,11,-20,12,9,5,-1,5,0
6107120109,-18,3,8,4,3,2,-3,-4
6107120109,-7,-4,13,-9,-10,-6,-9,-4
6107135110,-1,-17,-20,10,1,6,11,5
6107135110,-5,-9,0,-2,2,-9,-3,-8
6107142604,15,-5,-9,2,3,10,11,5
6107142604,7,47,7,-5,4,1,2,4
6107151504,-21,-7,16,6,-7,-12,-11,-11
6107151504,3,2,-3,-3,3,5,20,8
6107165066,-1,7,12,8,-4,-3,-15,-4
6107165066,0,-23,-21,-27,-9,-7,-4,-3
6107173975,12,22,-1,2,-2,1,5,3
6107173975,-10,5,6,12,10,5,-4,-6
6107180113,-12,-6,-40,-7,-9,-4,-4,-2
6107180113,3,-8,-16,-19,0,-1,-7,1
6107195054,9,10,25,8,-3,-5,1,2
6107195054,12,27,-26,2,10,1,-1,-1
6107202603,-7,-29,27,4,-4,0,-8,-1
6107202603,-2,24,18,29,5,-1,-1,-4
6107211456,-3,13,23,-15,-6,1,-6,-1
6107211456,-2,13,-16,-7,-5,0,-2,-2
6107225103,3,0,-2,-2,-4,-5,-1,2
6107225103,-2,1,-9,-4,-10,-5,-4,-3
6107233914,14,3,4,15,8,5,-1,1
6107233914,-14,-6,5,7,3,-1,-6,1
6107240096,-13,-2,11,-1,-5,-2,-7,-5
6107240096,14,23,-49,-28,3,3,2,2
6107255142,-3,0,5,9,-1,0,-2,-1
6107255142,-10,-22,-3,2,-4,-2,0,-3
6107262641,2,7,-12,-2,1,-8,-3,0
6107262641,5,2,10,14,2,5,4,2
6107271487,-18,4,-30,-3,0,-5,-27,-7
6107271487,20,48,10,0,-3,4,46,8
6107285105,-5,-5,33,-5,-4,1,-3,-1
6107285105,-1,-3,14,4,-1,-1,0,-2
6107293969,-2,-7,-25,-4,0,-3,0,-2
6107293969,-13,-11,-11,0,-3,-4,-16,-5
6107316364,8,7,-18,-16,-7,-1,0,-2
6107316364,-6,0,20,7,5,-1,2,-2
6107318016,6,-22,-7,7,4,-1,2,3
6107318016,5,-25,-15,-22,-7,-4,-8,0
6107322707,-8,14,26,5,-3,0,1,-2
6107322707,-9,-19,-34,-9,-2,1,-6,-4
6107331597,2,8,10,11,9,1,4,3
6107331597,4,4,-4,3,-5,-4,-6,-2
6107345085,-5,-10,5,-3,-6,-7,-6,-2
6107345085,8,27,-1,-8,-7,-6,-8,1
6107353963,2,-9,9,2,0,8,18,7
6107353963,-21,10,23,4,6,6,-2,-8
6107368312,10,6,-28,1,11,2,-1,-2
6107368312,-2,3,27,6,-8,-3,-3,-4
6107375059,3,-3,10,5,1,-2,-2,1
6107375059,2,-13,-39,-22,-7,-2,2,-1
6107382487,-19,-25,-19,-6,-8,-6,-5,-5
6107382487,0,-10,-1,2,9,4,9,3
6107391499,10,3,17,11,-3,2,-12,-5
6107391499,-6,-9,16,-11,-8,-8,-12,-5
6107405096,-6,-21,-24,0,11,2,0,-3
6107405096,3,-5,-8,-6,-9,-6,2,0
6107413961,-3,-3,-29,-16,-12,-6,-10,1
6107413961,-5,3,29,7,7,2,-2,-4
6107428348,5,0,-16,2,2,3,-1,1
6107428348,-12,0,9,7,10,4,0,3
6107435074,2,3,-12,-9,-8,-4,3,0
6107435074,1,-19,-7,4,-5,-1,-4,0
6107442486,-11,-4,5,-7,-3,-3,3,-4
6107442486,10,2,4,-8,-11,-3,-5,-1
6107451461,-5,-7,-13,11,4,1,6,0
6107451461,-2,8,60,-15,2,0,-2,-1
6107464957,-1,6,-19,9,3,1,-1,-2
6107464957,1,-11,9,-5,-4,-4,-6,-2
6107473964,1,-3,-13,-12,-3,-4,2,2
6107473964,-4,-7,0,15,-9,-6,-5,-2
6107488170,-3,-9,6,-16,-1,0,-2,-1
6107488170,5,23,15,15,11,6,1,1
6107495060,-3,-2,16,4,2,-3,1,-3
6107495060,2,-4,-26,-8,-7,0,-2,1
6107502439,-4,15,17,3,9,1,-1,-1
6107502439,3,-18,1,-3,-4,-5,-6,-2
6107511467,-1,0,-26,-12,-8,1,0,-1
6107511467,2,9,22,6,3,0,2,2
6107525017,-5,-4,-13,-3,-5,-3,-2,-5
6107525017,3,7,24,16,6,4,-3,0
6107533990,-3,2,-16,-22,-1,-2,-4,0
6107533990,-7,-22,-41,-9,-10,-4,3,-4
6107548160,6,8,18,-4,4,1,-1,3
6107548160,2,16,0,8,-2,-2,-1,-1
6107555037,-12,-9,-23,-3,-8,-5,-2,-5
6107555037,4,-21,-30,10,1,2,1,1
6107562608,1,27,15,-11,10,5,5,1
6107562608,-5,-23,30,6,4,-2,-1,-3
6107571462,-2,6,-16,1,-2,-2,1,-1
6107571462,-7,-2,20,6,-7,-7,-5,-1
6107585016,19,14,-21,2,4,0,-1,2
6107585016,-5,0,-4,-20,-9,-2,-1,1
6107593944,4,9,20,8,3,1,1,-2
6107593944,-5,9,-7,-8,-2,-1,-4,-5
6107608151,-3,-11,-14,5,3,-2,0,1
6107608151,2,3,-2,5,2,4,4,-1
6107615051,-5,-7,12,2,-2,1,-3,0
6107615051,6,15,-3,2,1,-4,-3,-1
6107622487,5,1,-35,3,-15,-4,-3,1
6107622487,-10,-12,8,-15,11,2,0,-1
6107637477,5,10,23,9,0,0,0,-2
6107637477,-8,-19,2,10,4,1,-3,0
6107644903,-2,11,8,0,-2,-1,0,-3
6107644903,-3,-12,-16,-2,-9,-6,4,1
6107653976,1,2,9,-2,1,2,-4,-1
6107653976,6,-2,-22,-11,1,-2,-2,-1
6107668255,-2,8,20,9,-3,-2,-2,0
6107668255,-6,11,-17,7,0,3,0,-3
6107674986,-8,-16,-5,-15,1,-3,-6,-3
6107674986,3,21,14,-2,-3,-1,4,-1
6107690689,2,-9,8,6,-4,-2,0,0
6107690689,-1,-5,-18,-1,8,1,-6,0
6107697466,7,9,-3,-1,2,2,6,-1
6107697466,1,1,48,2,-3,-3,-4,-1
6107704967,-8,-18,8,-14,-2,3,0,-1
6107704967,5,6,-8,13,-5,-8,-7,-1
6107714021,-2,6,-2,-18,-4,4,4,1
6107714021,-10,-8,-24,-4,0,-1,-1,0
6107728265,4,-5,24,6,2,-2,-1,-4
6107728265,4,6,-58,-9,-6,0,1,3
6107735104,-5,-12,-4,14,4,-4,-3,-2
6107735104,-2,-13,1,-3,2,3,1,-1
6107750728,-8,-6,-8,-7,-3,-2,-3,-2
6107750728,5,10,10,-10,-9,-4,-1,-2
6107757601,-3,-5,3,3,-6,-5,0,0
6107757601,-2,-1,-33,-2,12,5,-1,1
6107773837,-11,-10,32,11,7,1,-2,-5
6107773837,18,11,-12,-15,-16,-3,0,1
6107775437,0,-1,26,13,1,-2,-3,-1
6107775437,1,8,26,-2,6,5,4,-1
6107788246,4,4,-5,-4,-4,-4,-3,1
6107788246,-11,-1,-8,0,4,3,3,-4
6107794960,2,-21,-32,-18,-10,-6,-3,-1
6107794960,2,8,10,6,-2,-2,-1,4
6107810700,0,15,-5,-4,0,2,-1,-3
6107810700,-8,-38,16,0,-2,-3,-2,-3
6107817553,11,47,-14,8,6,4,4,6
6107817553,-1,-3,-15,0,-1,-2,-4,-3
6107833981,2,-3,6,2,0,0,1,1
6107833981,-8,-4,-20,-8,-4,-2,-4,-2
6107835422,-4,-12,11,-3,-2,-7,-4,-3
6107835422,4,1,-9,1,2,2,0,-2
6107848332,-4,9,-1,7,0,2,0,1
6107848332,-3,9,-5,-7,-3,0,4,2
6107862485,-5,-25,7,5,8,0,-4,-4
6107862485,6,11,6,1,-2,-3,0,2
6107870633,6,-10,-6,-11,-6,-4,-2,0
6107870633,-17,-21,-7,7,3,1,0,-3
6107877618,0,5,0,2,4,-1,1,0
6107877618,0,3,3,-4,-4,0,-2,0
6107893909,-1,-4,7,3,-3,-1,3,-3
6107893909,0,11,5,-6,-5,-2,-3,-2
6107895475,2,4,-8,0,-6,-3,-2,-4
6107895475,-1,-6,15,5,-1,1,1,-2
6107908198,4,-11,-88,-15,7,-1,-1,0
6107908198,-6,2,12,10,5,2,0,-2
6107914963,-6,-16,20,-8,1,3,1,-1
6107914963,1,28,-5,-3,-9,-5,-4,-3
6107930764,-1,-4,3,-6,-1,-4,-3,0
6107930764,4,5,16,17,4,1,-1,0
6107937606,-3,-10,19,8,8,3,2,1
6107937606,-2,-3,-14,-15,-5,-3,-3,-3
6107953860,-6,-2,-8,-3,-15,-5,-5,0
6107953860,0,6,2,-5,3,4,6,0
6107955412,-6,-23,-13,-4,-3,-3,-2,-1
6107955412,-2,-16,-2,8,0,-2,-1,-2
6107968098,0,-4,-4,-3,0,-2,-5,0
6107968098,7,4,5,-1,-5,-4,2,0
6107975047,-10,6,10,-7,-10,-2,-3,-7
6107975047,-5,-17,-6,5,6,2,-5,0
6107990743,9,21,17,2,-2,1,5,2
6107990743,0,11,1,-4,-2,-1,-5,-2
6107997551,9,9,-6,-1,1,1,1,2
6107997551,-7,-4,-3,5,-8,-5,-5,-3
6108013919,-13,-2,24,-14,8,2,0,-4
6108013919,3,-13,-32,5,0,-6,-2,-1
6108015398,3,10,39,-1,-5,-5,-3,0
6108015398,4,16,-9,6,7,1,0,-1
6108028246,2,-15,18,11,0,-1,6,-1
6108028246,-5,-4,-20,-21,-2,-3,-2,-2
6108034962,-9,-3,-8,19,0,-2,-1,0
6108034962,3,-6,10,-19,-6,0,2,0
6108050776,-5,16,-4,2,-3,-1,-2,1
6108050776,4,-14,1,-3,-1,-1,-4,-3
6108057593,-1,0,-19,0,-1,-1,-3,0
6108057593,2,4,1,5,4,2,4,3
6108073971,9,7,-13,-4,-8,-3,-3,-2
6108073971,-5,1,17,1,-4,-1,-2,0
6108075420,-11,0,-14,-2,3,2,0,-3
6108075420,-5,-10,23,1,-3,-4,-1,-4
6108088172,-8,-35,-54,-7,0,-1,-2,-3
6108088172,9,1,9,-1,-4,-6,-3,-1
6108095061,-6,20,-6,-9,-2,-3,1,1
6108095061,1,-7,6,-9,1,4,0,-3
6108110656,-1,-1,0,3,-2,0,1,-1
6108110656,0,24,22,9,0,1,-4,-1
6108117538,-6,-18,3,-9,-8,-3,3,1
6108117538,7,4,-25,-4,-10,-6,-3,-2
6108133920,-4,-7,11,-12,-4,1,-1,-2
6108133920,5,-6,-4,13,2,0,0,-1
6108135395,1,15,-42,-7,6,6,-1,-4
6108135395,-16,-10,-14,2,-8,-8,-3,-1
6108148031,-4,-18,-6,5,-6,-2,1,-3
6108148031,5,-10,17,-15,10,0,0,0
6108156409,9,1,15,0,-8,-2,-4,-1
6108156409,-3,2,-24,-3,-1,-1,-1,1
6108170806,4,13,11,-3,-1,1,-2,3
6108170806,-5,7,10,2,-1,2,1,-1
6108177550,8,-12,-19,0,-5,-4,-4,-1
6108177550,-10,-1,-12,10,9,4,3,-3
6108193851,2,10,27,-8,-6,-4,-2,-2
6108193851,-3,5,2,-1,-5,-3,-2,2
6108195417,-9,-18,-19,-14,-3,-1,-1,-8
6108195417,19,20,14,6,3,-1,-2,5
6108207588,-3,-3,1,12,3,2,0,0
6108207588,-8,-7,11,-11,-6,-3,-1,-5
6108216439,-2,3,9,5,0,-5,-4,2
6108216439,-5,-14,0,-8,-10,-3,1,-3
6108230770,1,5,-15,2,15,0,-1,-2
6108230770,3,-8,-25,-3,-3,-2,-4,1
6108237563,3,0,9,-1,-1,1,1,-3
6108237563,-6,-2,12,1,4,-1,0,0
6108253928,-5,4,5,11,1,-1,-1,-1
6108253928,-7,-9,-6,-11,-8,-5,-3,-4
6108255403,3,7,7,-4,-3,-3,-2,-3
6108255403,6,-3,-2,10,10,6,5,2
