timestamp,emg1,emg2,emg3,emg4,emg5,emg6,emg7,emg8
7391979369,-15,33,-41,-24,-22,-4,0,-7
7391979369,19,-6,-14,-31,13,-2,-2,2
7391980262,15,29,11,15,1,5,4,7
7391980262,-1,63,5,-22,-1,-10,-9,-4
7391986118,-6,-98,-7,7,-1,-5,1,-2
7391986118,24,41,9,-19,-20,-5,-7,1
7391987758,-42,35,-15,-4,5,4,7,-3
7391987758,-4,-91,6,21,11,11,28,1
7391991927,2,-16,33,-2,2,-3,-25,-4
7391991927,-5,6,-9,-5,-14,-12,0,-4
7392003356,0,2,14,0,3,-5,3,-5
7392003356,5,16,-2,-10,-14,-14,-5,-9
7392006933,4,51,11,8,3,17,41,11
7392006933,8,-11,16,23,22,10,13,2
7392023290,-1,16,-34,-17,2,2,-13,2
7392023290,-10,26,6,22,0,-7,-4,-8
7392030612,11,52,-18,-25,-9,-9,-5,8
7392030612,-16,25,10,26,-24,-1,-8,-5
7392045660,8,-21,12,-38,1,-14,7,1
7392045660,-4,-48,4,11,7,18,-4,-1
7392052058,15,-37,15,53,45,16,3,0
7392052058,-9,-21,-8,-8,8,4,2,2
7392100090,-2,-10,10,32,3,29,4,-1
7392100090,-2,-17,12,9,53,5,6,2
7392100933,2,-11,-3,12,1,-11,-2,-1
7392100933,-5,-11,6,16,-11,11,-1,-4
7392101794,8,1,0,-21,-5,-3,0,-2
7392101794,-1,-1,-24,-46,-38,-9,-4,-3
7392105628,-6,-8,2,-18,-4,-9,-3,-7
7392105628,0,-19,-7,-8,17,3,4,1
7392111779,5,3,2,17,8,2,3,3
7392111779,-3,4,8,10,-14,-2,-4,-6
7392120624,-2,-4,-8,-19,-12,-7,-5,-2
7392120624,-16,-17,12,11,-10,-8,-6,-7
7392126705,-3,-15,-10,0,8,-2,-3,-3
7392126705,12,17,4,8,3,-5,3,7
7392143144,-11,-18,-11,-3,-9,4,0,-8
7392143144,5,13,2,5,14,7,1,4
7392149251,1,22,8,4,0,-10,9,-7
7392149251,2,-5,-12,-12,-3,1,4,3
7392164311,5,15,-6,15,2,5,-5,2
7392164311,3,-4,-1,-4,-2,10,16,-1
7392171714,-6,1,-5,-15,-3,-6,5,0
7392171714,-9,-1,3,15,-4,-6,-18,-6
7392180603,8,5,2,5,8,6,12,-1
7392180603,14,11,-13,-10,-4,-15,-21,10
7392186757,-4,-3,-2,-4,-7,13,-12,-1
7392186757,-11,-8,2,7,5,-6,7,-3
7392203135,0,12,6,7,8,1,0,1
7392203135,-11,9,-3,-11,-5,0,16,-16
7392209242,12,-2,-2,-1,-1,7,35,19
7392209242,-3,-5,-2,1,-4,-2,-17,0
7392224261,5,-10,0,-2,3,1,-24,-2
7392224261,-12,-10,0,0,-5,-6,15,-14
7392231646,7,-16,-7,-8,-6,-34,-14,9
7392231646,4,-11,0,3,3,18,22,12
7392240589,-11,-10,2,1,0,17,8,-22
7392240589,4,3,3,-1,-1,-8,-31,-1
7392246785,-4,-4,-1,0,-1,-2,16,-2
7392246785,-4,-9,1,-2,-1,6,-12,-5
7392263089,7,7,2,0,-2,-2,4,6
7392263089,-5,8,-4,0,0,2,6,5
7392269283,-1,-4,0,-5,-1,2,-8,-6
7392269283,0,9,1,10,-4,-4,8,2
7392284221,-5,6,-8,-6,-4,-4,0,5
7392284221,2,-2,0,-16,-6,0,-6,-1
7392291765,5,1,-2,29,13,-1,-5,0
7392291765,3,14,3,-3,-9,-4,-9,-7
7392300595,3,-11,2,13,-2,-4,-2,2
7392300595,-15,15,-7,-4,9,4,5,3
7392306762,-12,-36,-2,-6,1,5,-10,-8
7392306762,-10,-3,9,-3,-7,-2,-1,-3
7392323136,13,18,25,27,1,1,3,3
7392323136,22,5,-24,-15,-5,-9,-2,2
7392329224,-21,-32,-13,-20,-13,-6,-13,-11
7392329224,2,-2,8,4,4,2,-1,-2
7392344255,-5,-13,-10,-20,-2,-3,3,6
7392344255,7,-19,24,13,-11,-6,-8,-2
7392351797,-5,70,-9,-18,-3,-1,-1,2
7392351797,-14,0,13,13,7,6,-2,-8
7392360639,13,-37,1,5,2,1,4,5
7392360639,-27,3,-5,-12,5,7,4,5
7392366633,20,0,18,20,-2,1,-19,-6
7392366633,-3,19,0,2,9,-6,-1,-1
7392383120,13,39,-17,-26,-5,-2,-4,2
7392383120,-4,22,7,1,1,0,6,3
7392389227,-18,-41,-1,23,-5,-7,-3,-6
7392389227,-5,-10,-1,-16,6,8,-1,-5
7392404217,8,13,-2,2,3,-1,3,1
7392404217,2,29,-11,-12,-12,-7,-4,8
7392411635,-12,21,-2,-31,-16,-4,9,-5
7392411635,16,-9,2,19,9,5,-12,-2
7392420638,-24,-5,-11,-7,5,-7,-5,-5
7392420638,7,-23,2,9,1,2,-2,-6
7392426753,20,5,5,6,10,2,3,9
7392426753,-16,-11,-10,-16,-21,-13,-7,-2
7392443141,-3,-4,-5,4,1,7,6,-1
7392443141,-6,-6,6,10,10,-3,-7,-7
7392449138,-1,-21,-1,-5,-18,2,22,6
7392449138,15,-1,-23,-25,-1,-2,0,-1
7392464274,-10,-4,4,6,-6,-10,-11,-4
7392464274,3,-16,-1,-8,-12,-15,-6,-2
7392471736,5,8,0,14,17,14,-4,-5
7392471736,-25,-10,12,8,10,7,6,-1
7392480603,8,11,3,4,-11,-1,5,2
7392480603,11,7,-9,-10,6,-8,-3,-6
7392494232,12,12,-11,4,7,-8,-7,4
7392494232,-4,4,2,-20,-23,-7,2,-2
7392511262,-13,-3,-18,18,14,4,-3,-1
7392511262,1,1,11,21,1,10,1,2
7392512156,-1,12,-2,11,12,4,-5,-5
7392512156,1,-6,-23,-42,-11,-8,-8,-4
7392524267,12,16,5,17,-5,-5,6,3
7392524267,-2,-11,11,22,-32,-1,0,2
7392531722,-17,-9,-12,-8,52,15,2,-7
7392531722,15,3,-2,16,8,5,9,6
7392540640,5,3,4,-17,-12,-14,-10,-1
7392540640,-2,7,6,7,4,3,-4,0
7392554226,-8,-28,3,-8,-17,-3,2,-6
7392554226,11,27,11,25,16,12,11,8
7392563102,-27,-15,-1,-21,-2,-6,13,-15
7392563102,3,8,-8,3,2,-11,-18,4
7392569234,-11,31,5,-8,-17,13,-5,-2
7392569234,-4,-19,-16,-12,-8,-23,24,-5
7392584270,7,8,13,7,5,32,-22,11
7392584270,4,-18,-8,-8,7,-25,16,-6
7392591722,13,-22,-13,-14,-12,15,-8,13
7392591722,7,13,5,11,-4,-6,-4,-20
7392600580,-5,-20,-7,-3,0,6,5,-14
7392600580,0,-23,-10,-14,0,1,12,44
7392614152,-29,10,9,-1,-6,-26,21,-39
7392614152,17,9,5,12,4,16,21,21
7392623141,1,4,-1,-9,5,20,2,-7
7392623141,-3,-10,-5,-6,9,9,-8,-2
7392629216,0,-16,1,-2,-6,-17,12,-2
7392629216,-4,-16,-1,0,-9,-18,-13,1
7392644238,-27,-20,0,-3,-4,-15,-10,-5
7392644238,0,3,-1,3,6,20,11,-4
7392651785,-12,-4,-1,-5,-6,4,-27,3
7392651785,-5,-5,-6,-5,-11,-53,-13,-7
7392660635,19,4,0,-2,5,35,-1,15
7392660635,-6,3,-1,3,-3,0,-10,-15
7392674255,-7,3,10,-4,-3,-3,-10,2
7392674255,12,-13,-27,-14,3,4,-11,7
7392683092,8,2,6,3,-5,-19,14,6
7392683092,-4,2,-2,-5,-9,-45,-2,-9
7392689172,-34,-6,11,21,6,44,0,-5
7392689172,6,57,19,2,-10,9,1,7
7392704224,23,38,-19,8,19,-11,-8,3
7392704224,-5,-30,12,-6,-6,17,8,-7
7392711595,39,-21,-48,-10,12,-15,0,16
7392711595,-35,30,26,23,3,7,-8,-10
7392720626,-32,6,-16,-4,-3,6,6,-7
7392720626,-3,-30,10,24,-4,3,-6,1
7392734248,14,96,42,13,4,-9,1,0
7392734248,23,-38,-10,-26,-9,16,5,14
7392743071,4,60,30,11,-9,-20,-13,0
7392743071,-17,24,-42,7,18,12,23,-10
7392749213,-2,29,28,32,-7,-12,-33,-2
7392749213,29,41,-18,-29,-9,-2,-2,4
7392764189,-17,-31,12,-1,8,5,8,-6
7392764189,7,3,18,31,0,10,-3,-3
7392771709,-22,-52,-44,-41,1,-2,14,-2
7392771709,-14,22,27,18,-6,-6,-27,0
7392780650,3,-54,-18,10,1,-3,2,-1
7392780650,-41,62,-1,-33,-23,-2,-11,-13
7392794240,13,-58,-25,25,19,-11,7,4
7392794240,14,-12,-8,-4,1,3,-1,6
7392803116,-3,-12,9,22,-6,-6,-9,-8
7392803116,8,-80,-21,-21,-6,-6,-12,-6
7392809206,17,94,17,-32,-19,2,4,7
7392809206,-28,-9,-20,1,4,4,2,-11
7392824322,-3,-2,-14,-9,8,-6,2,5
7392824322,9,-2,15,6,9,3,-4,2
7392831761,-1,-47,10,-16,-30,9,9,6
7392831761,-6,-48,-1,-2,-7,-6,7,-7
7392840603,9,-9,8,-7,3,-17,-10,-4
7392840603,-2,-13,5,15,-12,6,-9,3
7392854205,-11,-20,-27,-54,-12,-6,-18,-6
7392854205,2,1,1,32,20,18,3,-5
7392863127,-16,2,-2,-29,-10,-6,7,4
7392863127,16,10,-5,5,28,-15,-6,-4
7392869237,11,1,9,28,-3,1,19,3
7392869237,-8,-8,0,-4,4,-2,-5,-6
7392884226,7,1,-12,-5,-1,12,3,1
7392884226,-9,5,8,-17,-5,-9,2,-8
7392891731,-1,-5,1,17,-12,-2,-9,-5
7392891731,2,-13,-16,-29,-4,-21,-18,-1
7392900590,8,18,2,23,4,14,19,5
7392900590,-2,4,-1,11,-16,-2,-9,-2
7392914113,9,23,-9,-37,27,-23,-16,0
7392914113,-18,-28,-6,8,-2,24,17,-6
7392923069,2,16,-2,-8,-16,-25,-12,-6
7392923069,7,34,-1,28,9,20,2,5
7392929076,-7,0,-4,-44,-19,-14,-5,-5
7392929076,-1,7,-5,-6,7,12,2,1
7392944068,6,-18,-9,-34,3,0,0,2
7392944068,-8,-4,5,-25,4,0,4,3
7392951760,-4,-7,7,41,-13,-6,-6,-4
7392951760,-2,-2,21,26,4,-4,-3,-3
7392960636,-10,-15,-27,-32,-20,-2,-4,-4
7392960636,7,-2,6,-4,6,0,0,3
7392974257,4,6,-3,2,12,9,2,1
7392974257,-1,4,6,4,-6,-3,-1,-3
7392983072,-4,-7,11,21,4,-5,-5,-3
7392983072,10,8,-8,-14,-3,4,0,2
7392989249,-2,-6,0,7,0,-17,0,-2
7392989249,-8,-9,-2,-4,0,26,4,-2
7393004247,8,-1,12,10,2,-24,-3,7
7393004247,-1,-6,-10,-9,7,31,14,0
7393011709,1,-21,5,11,4,-6,12,2
7393011709,2,-2,-8,1,2,-3,-5,-1
7393020616,-7,1,-2,-7,-7,-15,-11,-19
7393020616,-2,3,3,1,0,-7,-1,18
7393034249,-7,-7,-5,1,-1,-3,5,-4
7393034249,0,-7,2,3,8,3,12,-3
7393043116,-11,-5,2,-2,-3,-11,-30,1
7393043116,17,0,-8,-10,-8,8,15,10
7393049108,-5,7,7,6,-1,3,-7,-18
7393049108,1,24,7,2,8,4,-23,9
7393064214,-9,-25,-4,0,-7,-16,-2,-7
7393064214,9,-2,-5,-3,-4,7,-15,0
7393071733,-9,-6,4,1,2,6,7,11
7393071733,-11,-9,-5,-5,-9,-7,-1,-11
7393094784,9,-17,-4,-1,-2,8,8,8
7393094784,-5,-7,0,-4,-5,-17,-7,-6
7393095574,3,11,5,3,2,3,-5,-1
7393095574,19,15,-1,-5,-10,-14,2,2
7393109852,-30,5,1,14,10,14,4,-1
7393109852,8,13,2,-12,-2,0,9,-5
7393110565,-9,-67,-3,23,-3,-3,-12,-6
7393110565,-6,28,-24,-6,-3,-11,-5,0
7393124199,12,10,16,-3,-7,9,8,4
7393124199,10,19,-11,-47,-13,-11,-5,-5
7393131712,-3,-18,-38,13,24,15,4,2
7393131712,-29,-27,18,24,1,-1,2,-8
7393146732,13,0,3,5,-2,11,6,7
7393146732,4,19,1,8,0,-11,-8,-5
7393154117,16,25,21,-13,-14,0,-4,4
7393154117,-14,2,-4,-20,-4,-7,3,-1
7393169845,-6,16,3,33,16,9,1,-7
7393169845,7,-7,5,19,8,3,3,5
7393170547,9,15,12,-11,-18,-4,-2,5
7393170547,21,16,-8,7,8,7,4,-1
7393184168,-22,-7,-13,-8,18,7,-1,-6
7393184168,-10,-8,-8,-4,-4,-2,-1,-1
7393191633,-10,23,1,13,-3,-3,-5,-5
7393191633,17,16,3,-15,-8,-7,-3,4
7393206707,4,47,21,6,-22,-7,-5,-3
7393206707,18,-18,-25,-13,12,-6,-5,-5
7393214206,-61,-33,-13,2,2,10,5,-5
7393214206,24,-22,7,-6,-2,-23,-4,2
7393229797,-17,-35,-17,-20,-4,7,-2,-6
7393229797,-4,-4,16,24,-2,-41,4,0
7393230569,8,-1,9,4,10,24,-2,2
7393230569,10,-24,-17,-15,1,10,29,3
7393244126,8,-11,-3,-12,-12,39,-8,-5
7393244126,-6,-15,1,15,-2,-47,-14,0
7393251747,19,11,-1,-7,-11,49,-29,-6
7393251747,-30,-20,-10,-16,-4,-28,-9,-4
7393266727,11,1,-1,0,1,-7,-1,1
7393266727,-29,-1,10,14,-16,8,-14,-7
7393274137,8,14,-14,-22,-13,-39,6,1
7393274137,20,8,-13,-13,1,13,-11,-1
7393289876,-7,7,3,-24,0,-4,0,2
7393289876,-10,-10,1,27,13,0,0,-5
7393290546,2,-3,-6,-3,-17,-20,0,-2
7393290546,7,16,25,75,26,9,6,6
7393304187,-7,-18,-8,18,6,-5,1,-6
7393304187,1,11,-8,-56,-5,7,7,-1
7393311710,-6,-16,-8,-49,-13,-5,4,-8
7393311710,-5,7,-8,12,6,1,4,3
7393326710,5,-7,25,21,-28,-10,-2,0
7393326710,-7,17,16,51,14,16,-4,-6
7393334219,18,20,-7,-22,-5,2,-4,2
7393334219,-22,-41,4,-27,23,-12,-3,-7
7393349844,-1,-5,-6,-18,-39,-2,3,1
7393349844,11,16,-16,2,25,10,4,3
7393350597,8,7,27,36,11,-13,-3,5
7393350597,-10,3,22,21,-16,7,-4,-3
7393364249,12,-9,-40,-60,8,-5,3,6
7393364249,-16,-8,8,-29,-14,3,-1,-10
7393371629,9,0,-26,29,10,-11,0,4
7393371629,-2,6,-7,3,-8,14,5,-2
7393386725,5,21,4,7,5,-13,-14,0
7393386725,4,34,-18,-8,-11,-3,-8,-5
7393394217,-10,-3,8,-6,6,-14,-8,-3
7393394217,3,10,8,-3,-14,-5,-9,-1
7393409826,3,-14,9,3,13,31,21,4
7393409826,3,-22,14,1,2,8,8,2
7393410560,-5,-4,2,10,-5,-11,-44,-6
7393410560,7,-23,-22,-26,-19,12,-8,-10
7393424131,-32,4,8,15,15,-42,2,-1
7393424131,-16,-24,-2,2,-1,55,-43,-4
7393431684,-4,-5,30,4,1,0,38,2
7393431684,-23,-26,-47,-22,-12,-15,-8,-6
7393446676,14,14,-6,-1,8,13,-8,2
7393446676,19,-17,-6,-3,-8,-15,36,29
7393454188,2,8,7,-4,2,-10,-34,-19
7393454188,-5,4,5,-5,-6,-3,2,-1
7393469151,10,6,17,15,6,5,12,-8
7393469151,0,-31,-12,-5,-9,-11,2,5
7393477295,-4,-22,-14,-6,5,12,4,3
7393477295,10,9,11,-9,-2,0,10,3
7393484230,-1,0,-1,15,2,-8,-13,-3
7393484230,-7,2,14,17,5,3,3,-6
7393491753,-2,18,10,-10,-4,1,16,5
7393491753,-5,-2,-13,-28,-22,-14,-15,-5
7393506675,2,4,-2,-12,9,8,10,2
7393506675,-6,16,-11,2,12,9,3,-6
7393514195,-11,10,-10,18,8,1,8,-2
7393514195,0,1,-13,14,5,-3,-1,5
7393529184,6,11,37,-13,-10,-3,-8,1
7393529184,15,21,44,0,-16,-5,9,-3
7393537394,-11,-5,-77,-15,2,-9,-6,-3
7393537394,-1,20,11,10,-7,1,0,-1
7393544178,-7,-25,-6,6,-4,-4,0,-1
7393544178,-13,-15,-16,-5,2,-3,-5,-4
7393551669,34,27,50,9,-2,2,10,8
7393551669,-2,29,-26,-41,-7,0,-3,4
7393566635,-19,-16,10,45,7,-3,-4,-8
7393566635,2,6,-1,-20,-18,-21,-9,-4
7393574243,-5,22,56,6,15,42,9,2
7393574243,0,18,5,14,15,-2,-7,-1
7393589230,6,60,-1,-11,-1,-10,4,5
7393589230,-2,-3,-22,-7,-8,-19,-5,-9
7393597357,14,-36,-5,-20,-18,14,-7,3
7393597357,-5,-26,21,15,2,-17,13,1
7393612360,-4,-26,-26,-24,2,10,-23,0
7393612360,-3,-10,10,19,16,-5,10,-1
7393613023,-12,-18,-27,-4,7,11,26,-3
7393613023,8,-15,0,8,-11,-3,-37,1
7393626706,3,-16,-21,-22,-18,-14,13,-4
7393626706,17,-8,-8,-28,-22,-19,9,-1
7393634901,-21,-9,11,40,28,8,-2,-1
7393634901,7,-14,20,45,16,23,2,4
7393649674,-3,-20,-2,-57,8,2,-1,2
7393649674,-10,0,-3,-6,-5,4,-6,-3
7393657344,5,-1,-8,-24,-42,-45,-9,-4
7393657344,2,2,17,16,24,-7,2,-4
7393672316,17,3,-8,29,-7,-1,0,-4
7393672316,-13,2,-21,-5,31,48,20,8
7393673081,0,3,-14,-36,-12,-5,-13,-3
7393673081,-7,-7,11,57,11,-11,2,-6
7393686709,4,4,3,-73,24,14,10,3
7393686709,11,2,-10,6,2,17,-7,4
7393694872,12,10,4,5,12,-16,5,0
7393694872,-17,-3,9,41,-65,-18,-2,-4
7393709163,-4,-2,-15,-52,22,4,-7,-12
7393709163,-15,15,39,13,13,-4,1,-1
7393717351,-3,-4,3,-3,-17,-7,-6,2
7393717351,-5,-10,-52,11,13,11,5,-3
7393732324,1,2,-13,46,0,-8,-1,3
7393732324,8,7,11,-22,-12,-10,-14,-7
7393733040,0,-7,2,-2,-15,-15,-10,-5
7393733040,-12,8,28,-23,5,4,2,-5
7393746683,-14,-22,-12,6,5,3,-7,-1
7393746683,-5,4,8,8,-8,-30,-10,-8
7393754814,-5,9,-20,-17,-2,25,-5,-6
7393754814,4,-4,-9,-46,2,4,3,1
7393769079,6,18,17,45,-14,-1,-3,3
7393769079,-7,-2,-36,-5,-15,-11,-7,-4
7393777407,-2,6,-1,11,7,-13,1,1
7393777407,9,13,8,-26,0,-7,3,1
7393792323,6,3,-4,8,-7,26,8,7
7393792323,-6,-15,5,2,-7,-40,-11,-4
7393793036,-5,-14,-4,-1,11,63,8,-4
7393793036,-9,-25,-8,-15,7,-10,-17,-4
7393806583,-1,-18,7,13,-18,-20,-1,-4
7393806583,-2,-20,-13,-5,4,11,11,4
7393814802,5,-3,-6,9,3,-13,-14,-3
7393814802,2,4,-6,-17,-6,-11,4,3
7393829204,-13,-1,4,9,-6,9,-15,0
7393829204,-5,-8,-2,-4,-4,-13,21,3
7393837301,3,-2,-2,-1,5,22,13,3
7393837301,8,-9,2,-5,5,15,3,-2
7393852363,13,-3,0,5,3,-13,2,-2
7393852363,-6,-6,-5,-2,0,16,-7,-2
7393853004,-12,-2,7,8,1,-22,4,3
7393853004,-3,2,-2,-13,-1,8,10,0
7393866682,-9,4,-5,0,-12,-10,-1,-5
7393866682,21,4,1,-1,-1,10,15,5
7393874903,-5,3,14,11,4,-10,1,4
7393874903,-16,-9,-63,-27,-8,-5,-13,-8
7393889068,13,7,-6,0,-1,-6,1,4
7393889068,-1,2,37,31,13,17,-8,-1
7393897377,8,53,12,-13,-6,-15,-4,3
7393897377,-2,-26,10,14,5,1,5,-3
7393912363,6,2,-34,-31,-13,2,4,0
7393912363,-11,-10,2,9,-7,0,-9,-9
7393913066,-1,6,-8,-8,5,-7,4,3
7393913066,17,5,37,34,19,10,2,2
7393928086,-43,6,16,-16,-12,-6,-4,-9
7393928086,-1,-17,-14,17,8,2,-13,-6
7393934877,-2,-55,-27,4,0,-7,2,-3
7393934877,17,17,9,-5,-8,0,-3,5
7393949184,-14,-9,13,17,-1,1,1,3
7393949184,17,21,-14,-15,9,4,3,6
7393957331,0,57,40,47,-20,-15,-5,1
7393957331,1,-55,-33,-38,31,14,10,3
7393972270,-4,-6,-23,-4,-4,-2,-1,-6
7393972270,-19,-14,-2,-23,-17,0,-3,0
7393973066,5,28,17,35,-2,-1,0,1
7393973066,-13,29,32,-12,22,-6,-9,-3
7393986679,17,-9,0,-43,-26,-12,0,6
7393986679,-20,-30,-104,-11,-5,6,-2,-7
7393994855,9,-3,-17,-4,0,1,0,2
7393994855,12,40,59,-34,-37,1,1,3
7394009184,4,-32,-1,10,26,4,0,3
7394009184,14,36,41,10,-14,-5,-5,2
7394017296,-19,-45,-8,-38,11,-10,0,-6
7394017296,-8,5,-14,21,-33,-10,12,-3
7394032351,-29,10,35,36,9,25,8,5
7394032351,33,-1,-5,-37,-8,-18,-12,0
7394032988,-23,-7,-34,-31,-4,-19,2,-7
7394032988,7,1,4,45,31,9,2,0
7394046645,12,2,-19,-12,-16,-15,9,4
7394046645,-1,-1,20,22,31,24,-6,1
7394054822,7,-5,-7,-46,-26,-2,-2,-2
7394054822,-6,-5,-17,52,35,-11,6,-6
7394069190,16,15,5,-8,-17,-2,-28,7
7394069190,-11,0,-7,-20,-15,-15,9,-13
7394077401,3,-14,25,24,3,5,-4,-2
7394077401,-5,-16,-19,-37,-21,7,-4,-4
7394092338,6,-1,20,31,-11,3,-6,-6
7394092338,4,15,-1,-51,22,-2,4,6
7394093024,-3,-11,21,30,5,-2,-1,-3
7394093024,-16,-2,-12,9,-18,-7,-4,-6
7394106611,-35,-24,12,-1,15,16,14,-13
7394106611,-12,-2,6,5,-18,4,-2,0
7394114826,1,-10,-17,-22,32,9,4,0
7394114826,15,25,0,-21,-11,-4,-5,4
7394129144,15,14,0,-10,-11,-15,-6,-4
7394129144,-5,-1,-6,60,3,-3,-2,-4
7394137386,8,6,-16,-13,9,7,-4,3
7394137386,-2,-2,13,11,21,12,3,3
7394152335,5,11,-9,-35,0,-2,2,0
7394152335,-2,-1,9,16,-22,-5,3,0
7394152964,-3,-16,-28,26,13,-6,-4,-1
7394152964,6,21,0,0,-17,-10,-8,2
7394166694,-5,-6,-24,5,-7,-13,-8,-5
7394166694,-3,0,6,-6,11,10,6,2
7394174846,9,3,14,10,-5,-19,-4,3
7394174846,-4,-12,-12,-22,-8,14,-2,-4
7394198015,-4,-14,0,20,7,22,-1,-1
7394198015,-2,1,8,-2,-1,-13,-2,-6
7394198674,-5,-2,-10,-16,-10,4,5,13
7394198674,9,-19,1,8,5,-3,13,-23
7394212359,17,1,-11,-13,-7,-75,-62,-6
7394212359,-5,-3,7,-1,6,84,52,18
7394213046,15,6,3,0,0,2,17,22
7394213046,-7,2,-7,-10,-8,-13,-44,0
7394226688,-12,9,2,17,9,20,52,13
7394226688,7,-3,-1,-8,-1,-34,7,-43
7394234885,-25,-12,5,3,-6,4,-32,-10
7394234885,27,11,1,-6,-5,-6,27,11
7394249180,0,14,-7,4,6,13,-2,12
7394249180,-8,-44,-1,0,-5,-16,-3,3
7394258033,-2,-44,3,-9,-7,45,16,-6
7394258033,-25,-3,-11,0,-1,-10,-12,-5
7394271688,13,8,7,13,9,1,8,-11
7394271688,-5,35,-5,-8,-4,-4,-22,6
7394280496,-4,-23,13,-2,-6,-16,-13,-19
7394280496,-34,12,-8,-8,3,4,-3,5
7394286669,31,39,16,1,-4,10,8,10
7394286669,-13,-20,-9,2,-3,-9,-11,1
7394295518,19,3,-20,-13,0,-13,-5,5
7394295518,-5,25,-27,-1,-7,-3,-1,-6
7394309154,5,44,-1,-12,6,-2,4,-7
7394309154,-16,-9,23,-6,-8,-1,-6,5
7394318015,19,-51,26,34,20,2,8,-1
7394318015,-20,28,-19,-47,-9,4,0,-4
7394331664,2,7,-42,13,-12,-8,-11,-6
7394331664,-11,-34,-31,-17,-5,-12,-9,6
7394340564,-21,21,38,-37,-13,-10,-3,-1
7394340564,-10,-4,2,11,-7,0,-3,-2
7394346683,14,-17,30,-8,15,15,9,3
7394346683,-1,11,-5,1,-7,-4,-8,-5
7394361696,24,22,3,0,-10,-4,11,7
7394361696,9,-57,-47,-7,5,-2,14,2
7394369175,-38,12,12,1,-5,-6,-23,-7
7394369175,30,72,1,6,-7,-4,-4,6
7394377999,-8,80,23,4,-2,0,-5,-3
7394377999,13,61,-4,-14,-14,-10,-6,1
7394391695,-4,18,0,13,18,-4,4,-3
7394391695,-7,-14,-2,0,-5,1,-5,8
7394400492,-2,-43,-22,7,-1,19,4,-7
7394400492,9,-59,19,17,-2,-6,1,0
7394406698,-11,-68,-7,-33,11,2,5,2
7394406698,4,-28,24,42,-20,-10,-11,-6
7394415494,-7,2,-36,-50,8,1,10,-6
7394415494,14,-4,22,7,21,4,-2,6
7394429173,3,-36,-12,-42,-26,4,12,-2
7394429173,-6,-11,1,17,2,2,-1,-2
7394437995,-14,-9,-20,19,-2,-12,1,-7
7394437995,2,-24,21,11,12,0,4,0
7394451661,-6,-25,5,8,-4,11,-4,0
7394451661,14,15,3,-31,18,-4,4,2
7394460547,-1,11,-15,-9,-21,-9,-11,-6
7394460547,-1,-10,12,11,-10,-6,3,5
7394466581,6,-6,-7,15,14,-1,-3,-1
7394466581,2,16,4,20,2,7,0,1
7394483060,-6,5,-4,1,5,-9,-6,-4
7394483060,-6,0,6,-1,11,2,-1,0
7394489055,-12,-1,0,28,12,7,6,-3
7394489055,7,4,12,1,5,0,-3,1
7394498064,2,16,16,20,1,-6,-6,-1
7394498064,1,-9,-13,-21,-9,8,-4,-2
7394511712,-18,-15,-14,-21,-21,-12,-8,-9
7394511712,-1,-13,-8,20,27,6,9,1
7394520524,10,11,-7,-14,-13,-7,-7,1
7394520524,-1,5,18,6,-11,-3,-5,-1
7394535491,1,1,0,11,6,6,3,1
7394535491,-5,1,6,-24,-10,-6,-6,-5
7394537006,-4,0,-6,13,11,3,9,0
7394537006,-1,1,1,3,-1,12,5,-2
7394549011,2,3,-11,2,-8,-10,13,0
7394549011,4,7,1,-8,6,12,-1,-1
7394558038,5,2,-8,1,-4,-15,-4,4
7394558038,-9,1,1,5,3,-3,2,6
7394571610,15,14,8,-1,-11,-6,-21,-6
7394571610,0,-1,-9,-12,-3,11,9,0
7394580522,-3,-1,-10,-1,1,-6,5,-3
7394580522,2,-2,19,3,-5,5,-12,-6
7394595483,-4,-22,-7,7,5,-7,5,-3
7394595483,-2,-12,-1,-11,-4,-11,-44,0
7394596988,-4,-14,-17,-3,-3,12,-3,4
7394596988,-6,-9,-9,2,4,-4,3,-6
7394609152,0,4,4,2,-3,-5,4,-4
7394609152,7,8,-6,-7,-4,-7,-20,-3
7394618014,-10,3,1,-1,-2,3,5,-1
7394618014,-10,0,0,-4,-7,-1,-4,-1
7394631658,10,4,-3,5,-2,-5,-2,0
7394631658,-8,-9,-3,-2,-2,-1,10,-2
7394640549,12,2,1,-1,2,-5,-5,-1
7394640549,-2,6,-6,0,-3,13,3,-4
7394655534,1,8,12,-4,-2,0,-7,2
7394655534,-5,1,1,-1,-3,-9,7,0
7394657021,8,1,-13,-18,-12,0,-2,-4
7394657021,-3,21,18,21,-1,-4,-1,1
7394669093,-5,16,-37,7,-2,5,4,2
7394669093,-14,-42,-45,1,33,11,11,-4
7394678022,2,2,14,-4,-11,-2,-3,-1
7394678022,-7,22,13,25,-2,-9,-9,-3
7394691631,19,-1,-44,-56,-11,-1,-5,1
7394691631,7,1,10,-19,-20,-9,7,3
7394700502,-16,2,-21,-19,-3,-4,-9,-4
7394700502,33,68,16,-8,1,2,1,3
7394715393,-54,-70,14,46,18,6,-2,-9
7394715393,22,-12,4,-31,-8,0,3,-3
7394716990,6,33,21,-4,-3,-2,4,6
7394716990,-43,-41,13,36,-4,-10,-15,-10
7394729159,7,-7,-19,-43,-3,-2,-2,0
7394729159,-6,19,5,23,6,10,10,-3
7394737987,12,0,-6,15,12,12,-2,6
7394737987,-2,-29,-7,-10,0,-10,-9,-4
7394751703,9,42,28,27,-9,-5,-8,-2
7394751703,-11,-10,-14,-11,-7,-12,-7,-3
7394760521,9,24,20,4,-4,3,9,3
7394760521,0,6,-29,-25,13,19,12,3
7394775495,2,5,13,4,-7,-7,-3,0
7394775495,3,49,5,5,14,10,6,3
7394777033,-9,-14,8,16,-18,-12,1,2
7394777033,8,-29,-27,-35,-14,-18,-22,-7
7394789110,-8,-8,10,10,-4,26,13,5
7394789110,13,9,21,18,19,1,1,2
7394798037,-2,-12,-1,1,-7,-7,16,7
7394798037,-6,-21,-10,-20,17,1,8,-4
7394811609,8,-14,12,36,-29,-11,-1,1
7394811609,-12,-7,-17,-28,7,1,-6,-5
7394820532,-7,-30,-12,5,16,0,-5,-2
7394820532,18,23,2,9,-1,1,5,5
7394835486,-3,-3,19,16,-4,-3,0,-2
7394835486,-5,-4,-4,9,-12,-7,-2,-3
7394836996,-9,-13,-8,3,4,6,-1,-6
7394836996,1,4,-5,-6,8,0,3,-2
7394849212,-2,-17,20,-16,-8,2,3,0
7394849212,-10,-22,2,-39,-21,-2,-4,-6
7394857990,-4,5,8,9,-1,-4,-9,-8
7394857990,5,-1,6,8,-1,9,7,5
7394871658,1,10,-26,-30,14,-2,-4,-2
7394871658,-14,2,11,25,1,-6,-1,-5
7394880484,5,-4,24,5,-2,4,-1,-2
7394880484,15,2,-38,21,-10,4,7,7
7394895444,-4,20,18,-72,22,6,1,0
7394895444,1,-1,2,62,-7,-4,1,1
7394896970,-1,-3,-26,-40,9,4,-3,-3
7394896970,-17,-59,20,50,-1,13,9,1
7394917916,9,9,-26,1,8,-1,1,4
7394917916,2,13,-15,11,0,3,1,2
7394919502,-14,-7,15,-17,-7,-2,-7,-6
7394919502,5,20,-6,-14,-5,-20,-7,-5
7394931521,-3,3,-2,0,0,8,2,-2
7394931521,-8,-13,-13,-8,-8,-4,-3,-2
7394940608,2,21,8,5,-1,0,1,-2
7394940608,-1,-2,-14,-32,-9,-24,-11,-6
7394955486,2,3,10,28,-2,3,0,2
7394955486,4,-4,0,-12,-3,-28,-31,-12
7394956971,11,-6,-1,18,9,20,-3,14
7394956971,-9,-12,3,-14,-7,7,9,24
7394969170,-11,-32,2,7,7,8,-1,-19
7394969170,8,5,8,-6,-8,-24,5,0
7394978006,-15,-13,-8,-2,-1,-11,-23,-31
7394978006,9,-12,4,-13,-15,-18,-11,41
7394991662,0,2,-5,22,21,42,17,-55
7394991662,-11,-9,2,-2,1,20,25,47
7395000528,-5,-5,-10,10,5,0,17,0
7395000528,18,37,9,-12,-5,-19,-9,-13
7395015502,8,22,4,3,-9,-26,-15,13
7395015502,3,-2,-5,-12,-12,5,-12,-16
7395017024,-10,1,-5,0,-3,-5,4,-2
7395017024,-7,-19,7,-1,-2,8,-4,-1
7395029120,0,9,-4,0,-6,-19,-8,6
7395029120,2,-14,2,5,4,12,11,-4
7395038031,12,71,-22,-2,-3,-2,-10,10
7395038031,-22,-96,-5,1,14,9,-1,-23
7395051656,10,27,12,-14,-11,-14,-6,13
7395051656,4,10,-17,-15,-8,-5,-1,-4
7395060481,-16,-11,13,6,2,-1,-1,-1
7395060481,35,77,32,13,-9,1,-3,-9
7395075489,-20,-20,-26,-6,7,0,2,4
7395075489,-8,-56,-7,10,0,-3,-6,4
7395076968,8,18,21,23,-3,1,-1,-9
7395076968,-2,0,-23,-19,8,12,14,4
7395089055,-15,-18,-12,-14,-10,-15,-17,4
7395089055,23,50,18,26,5,-1,-2,-5
7395097996,-16,-41,-4,-23,-13,2,-2,-1
7395097996,-9,4,19,36,0,-1,-3,-11
7395111657,16,84,-22,-3,9,5,8,9
7395111657,-8,-29,-11,-35,0,2,0,-5
7395120542,5,-54,-14,-22,8,-3,17,4
7395120542,-15,21,3,2,0,1,-20,-6
7395135531,6,-2,2,3,-20,-11,-8,4
7395135531,-10,55,21,12,9,5,10,-1
7395136986,-4,-11,-3,-4,-16,-9,-5,-1
7395136986,16,47,-6,-1,11,3,4,-10
7395148984,-20,-56,-7,-2,-7,-13,-11,-3
7395148984,-4,-11,4,20,3,16,-1,-3
7395158001,21,12,-2,-4,6,-14,1,9
7395158001,-3,-14,0,1,7,4,0,-6
7395171590,-8,-27,-1,-25,-20,8,0,-3
7395171590,-1,36,6,-2,-12,-32,-3,-1
7395180516,-4,-26,-2,25,33,31,4,3
7395180516,-8,-11,-7,-10,20,-11,-3,-2
7395195485,23,3,10,-9,-36,-5,1,6
7395195485,-13,-28,-8,-12,10,4,2,-7
7395196990,-12,-20,3,1,-9,-2,-10,-5
7395196990,-1,-6,-13,-11,-6,-20,-7,-3
7395209155,-10,-6,9,28,17,18,5,-2
7395209155,8,1,1,-1,0,3,1,1
7395217969,1,18,2,-9,-7,-3,-8,-5
7395217969,-1,-6,-8,1,4,-1,1,-1
7395231640,1,9,14,1,-9,-14,-1,1
7395231640,6,1,-24,-24,-10,8,-4,-1
7395240458,-4,21,-12,15,0,-14,-4,0
7395240458,-20,-20,21,-22,-18,10,5,-8
7395255513,10,21,-5,24,13,1,7,4
7395255513,4,7,-2,-4,7,-3,-9,-1
7395256991,-1,-5,-9,-32,-27,-7,-3,-4
7395256991,1,-6,-12,11,-5,-7,1,-1
7395277986,-10,-7,8,13,9,-5,-4,-8
7395277986,-1,-11,12,-30,4,5,5,2
7395279468,9,9,-20,-9,-3,-2,1,3
7395279468,-7,-8,13,-19,-11,-4,-5,-5
7395291605,-3,-5,1,3,1,-8,-3,-3
7395291605,-4,1,15,66,-24,-7,-4,-6
7395300490,14,14,-26,-6,24,5,9,6
7395300490,-17,-12,-24,-45,-9,1,-4,-4
7395315284,14,14,6,-7,4,-1,1,4
7395315284,-4,10,13,11,-2,-16,-10,-3
7395321638,0,18,9,13,1,6,5,2
7395321638,2,7,6,32,6,7,6,5
7395338109,-5,-5,-1,8,4,20,3,0
7395338109,2,0,-15,-11,11,-7,6,2
7395339521,-8,-16,10,8,-9,-9,-21,-16
7395339521,4,-1,-11,-3,-9,-27,11,11
7395351624,-9,-28,0,-11,1,-14,-25,7
7395351624,-1,-25,11,-3,2,26,22,-12
7395360560,14,-11,5,-2,0,11,-45,9
7395360560,-8,-9,-1,11,-2,-11,15,-18
7395374810,-8,-10,-12,-5,-2,-1,-28,-8
7395374810,-10,-8,-12,-12,-8,-3,12,-6
7395381512,4,-5,1,-5,-16,-29,-12,10
7395381512,-2,-4,0,16,28,34,13,2
7395389113,-9,-12,4,2,5,4,11,-4
7395389113,1,3,-1,-12,-2,6,-15,-2
7395398014,-12,4,9,2,-1,4,10,-4
7395398014,18,8,-3,-8,-18,-6,-10,7
7395411576,5,4,-3,-5,0,-6,6,-3
7395411576,7,-5,-5,-3,-3,-11,-9,7
7395420504,4,3,3,1,-2,-4,14,-3
7395420504,15,4,-3,6,-5,11,-7,2
7395434834,-27,-13,7,-6,-3,-3,6,-2
7395434834,5,26,-22,-7,2,-2,-9,2
7395441543,-10,-9,3,-3,3,-2,7,-1
7395441543,3,6,12,13,2,10,0,-4
7395457883,-2,11,-19,-1,5,0,3,-3
7395457883,2,43,18,9,0,-6,-2,2
7395459451,8,-6,-3,-7,5,9,8,0
7395459451,14,-8,4,-4,-10,-6,-3,10
7395471658,-28,29,-8,-17,-18,-7,-2,-11
7395471658,8,61,-26,1,20,9,6,0
7395480459,-24,-23,3,29,1,3,4,-3
7395480459,7,0,-13,-16,12,2,15,-3
7395494719,23,-17,24,6,-6,0,-16,6
7395494719,-17,-13,10,2,-9,-10,-8,-6
7395501524,9,7,2,0,-10,4,9,2
7395501524,-5,-1,-18,-18,1,-3,-4,5
7395517955,9,-4,9,3,5,3,13,-3
7395517955,-10,0,14,-11,-16,-3,-9,-1
7395519481,8,13,0,9,16,-6,-2,-1
7395519481,-13,-1,-18,-30,-23,4,-14,-8
7395531651,22,29,6,34,22,0,17,4
7395531651,-29,-19,-16,-9,-3,7,-20,-4
7395540478,-3,37,11,6,-7,-2,3,2
7395540478,-5,-11,5,1,-6,-30,-3,-4
7395554799,35,38,-13,-19,-6,16,-4,0
7395554799,-4,-75,9,-2,-22,6,17,-3
7395561588,-36,-76,-9,-3,4,5,-6,-10
7395561588,18,4,-3,11,20,9,13,6
7395577952,-13,-26,-5,-21,-41,-16,-2,1
7395577952,10,-1,-4,21,48,19,16,5
7395579469,-6,-20,1,-14,-10,-8,-9,-9
7395579469,3,3,-4,-24,-28,-9,-39,-1
7395591661,-7,-18,0,27,33,7,8,-1
7395591661,-2,-14,-9,-31,-52,-18,-5,1
7395600456,13,6,4,24,50,-4,-5,2
7395600456,-4,12,15,23,-27,4,6,-6
7395614789,-3,-12,-14,-36,-14,-13,-7,-5
7395614789,-1,-14,-4,37,16,7,-10,0
7395621632,4,21,10,-30,-23,9,12,-2
7395621632,-21,-16,17,7,20,4,4,1
7395637942,-6,7,-8,-15,6,-2,-3,-4
7395637942,21,10,-4,8,-2,-2,9,7
7395639441,1,14,5,-5,-8,1,-3,-3
7395639441,-6,-5,-13,1,3,3,0,-1
7395651614,-20,-40,-6,-9,6,-6,-6,-8
7395651614,-12,-27,14,-13,1,-4,-2,-3
7395660496,-2,-9,-13,51,7,-4,-3,-5
7395660496,-5,-17,-27,-30,-6,17,13,5
7395674719,2,7,-10,16,5,-9,-1,-4
7395674719,20,22,1,15,0,-6,-1,11
7395681519,-10,4,-3,-26,-20,4,8,-8
7395681519,-5,5,19,17,4,-5,-3,-5
7395697953,10,14,4,15,3,-3,10,5
7395697953,-25,-31,9,-24,15,12,3,-4
7395699499,4,9,-6,-1,-4,1,-7,2
7395699499,-7,20,5,-1,4,6,3,-4
7395711614,13,44,14,19,-5,-10,-7,3
7395711614,11,41,-13,-1,-5,-17,0,0
7395720485,13,54,26,2,-4,8,9,2
7395720485,-15,-31,-11,-7,-8,-21,-24,-4
7395734792,1,-35,-8,3,8,13,29,3
7395734792,6,-9,8,-4,-5,-10,-51,-8
7395741579,-6,-20,-10,-13,-2,6,49,8
7395741579,9,-4,-18,8,7,-7,28,84
7395757962,-17,-20,12,-1,-3,18,-21,-41
7395757962,-16,-27,-14,-16,-10,-17,5,-8
7395759476,8,-20,1,2,5,7,-8,-13
7395759476,33,-8,13,9,3,1,0,2
7395771600,-67,-39,2,-4,-2,9,14,-10
7395771600,15,-35,-8,-6,0,-12,-12,21
7395780497,10,-6,-6,-7,-5,8,4,12
7395780497,-20,-16,0,4,3,12,-15,-22
7395794706,23,15,-8,-4,-3,-1,-14,16
7395794706,9,42,0,2,-4,0,4,-17
7395801631,-8,5,-10,-3,-2,-21,-20,5
7395801631,13,45,5,3,0,-8,-1,-9
7395817990,8,29,-2,-5,-6,-2,-4,-1
7395817990,-19,2,4,-6,-2,12,8,7
7395819485,22,17,1,6,6,-9,8,3
7395819485,-4,20,5,7,-8,-2,-2,-19
7395831630,-15,-7,-4,-9,9,-10,-7,7
7395831630,21,31,-3,9,1,21,17,2
7395840490,-30,14,30,23,-1,8,1,9
7395840490,-21,-15,-33,3,-14,-10,-19,-27
7395854804,11,7,-23,-22,18,-4,16,4
7395854804,35,0,20,16,2,2,-32,3
7395861524,-8,-11,32,52,1,-4,-5,-3
7395861524,-18,1,-82,-66,16,5,4,-14
7395877937,6,12,25,-12,-11,1,16,13
7395877937,-24,-23,45,53,2,-2,3,-2
7395879440,34,62,20,-65,-2,-7,-12,-4
7395879440,0,-63,-6,18,-14,-3,25,9
7395891602,23,2,-25,-4,-17,-11,-2,-2
7395891602,-11,89,4,5,-8,3,-17,2
7395900492,-21,-61,-5,-52,13,0,-22,-12
7395900492,-5,16,-11,-2,-2,-4,4,-10
7395914832,12,-2,-22,-50,-27,-1,-4,12
7395914832,7,10,-15,7,0,12,17,-1
7395921605,-8,-26,-52,4,34,2,1,-1
7395921605,5,46,41,22,-13,-7,0,5
7395937947,-6,-2,0,-2,-7,0,-8,-2
7395937947,-3,7,1,-20,-2,-10,-6,-4
7395939490,-13,39,-39,-33,-48,-21,-21,-12
7395939490,6,-12,27,19,17,21,-5,-1
7395951610,2,4,35,54,8,12,4,0
7395951610,-8,-46,-23,-48,-8,-23,2,-2
7395960460,10,-51,-2,17,17,32,-19,-2
7395960460,-22,-24,16,9,-18,-21,4,-4
7395974785,9,-29,5,5,-10,-18,9,12
7395974785,-17,-36,-14,-24,-22,45,-5,-11
7395981560,4,-19,-7,22,17,-14,6,2
7395981560,11,7,31,17,70,12,6,-1
7395997939,1,-5,3,23,18,18,6,-1
7395997939,-5,-27,-12,-23,15,-43,-4,-6
7395999424,-7,-2,8,-29,-18,13,-4,-1
7395999424,4,13,3,10,0,-3,-8,-5
7396021135,-2,3,6,0,19,-19,-11,-5
7396021135,2,3,-9,8,-17,-10,12,-1
7396023190,-1,12,-19,-40,-10,-17,4,-3
7396023190,3,11,12,-8,-23,3,-8,0
7396034623,-2,0,2,76,35,9,-11,-4
7396034623,-5,-9,4,-4,-31,5,25,1
7396041440,0,8,-26,39,1,0,2,3
7396041440,-7,-11,20,-39,-15,13,5,-4
7396057828,-4,8,9,26,4,3,-10,2
7396057828,2,11,-4,-38,23,-11,-5,-4
7396059413,-7,-14,-2,-23,-33,-10,-12,-5
7396059413,12,20,26,63,4,13,13,10
7396080325,-8,-13,11,-23,-8,0,-4,-4
7396080325,-4,-5,1,-1,23,4,0,-1
7396081950,-2,-7,-1,-12,-42,-18,-6,-4
7396081950,-1,-1,-51,10,11,-2,0,-1
7396093927,3,17,28,-18,-7,-6,1,-2
7396093927,-1,-10,10,26,19,4,4,-1
7396102963,9,7,7,1,-8,-8,5,5
7396102963,7,-2,-15,-9,-3,0,6,8
7396117819,0,-9,-28,-10,12,-7,15,-10
7396117819,11,7,6,6,-18,16,-26,7
7396119434,-16,-11,-5,11,0,-19,-2,-6
7396119434,-2,-31,0,-24,4,11,1,-5
7396139464,-17,-23,-10,-27,-22,-10,-8,-2
7396139464,-11,-24,-11,7,-4,-4,-6,-11
7396147997,17,-10,-1,16,18,-7,2,8
7396147997,11,7,1,-10,-7,-9,-25,-5
7396154086,3,6,10,-11,-9,9,-24,8
7396154086,8,18,4,10,3,-12,6,-6
7396169067,-7,6,6,12,13,13,2,0
7396169067,3,-1,-3,-19,-11,-12,-1,-8
7396177893,0,0,-8,2,-7,-9,-29,4
7396177893,-17,-10,-13,-8,7,12,8,-12
7396179405,5,-13,2,-3,-2,2,7,15
7396179405,13,-5,0,-6,-6,11,12,4
7396200457,-25,-3,-6,-5,-2,2,-13,-6
7396200457,8,12,-1,-6,-4,-9,5,2
7396201993,-14,-4,7,7,14,16,1,-9
7396201993,-4,32,11,4,-2,-19,14,15
7396214097,6,21,-11,-7,0,8,-4,-28
7396214097,9,-5,-2,1,-2,-3,18,20
7396222958,-19,-16,-4,2,-4,0,-18,-9
7396222958,-15,27,3,-5,-4,-7,-6,5
7396237854,22,-2,-12,-14,-8,2,19,5
7396237854,16,61,4,5,-6,-6,-4,1
7396239467,-9,34,5,7,-2,-2,3,-14
7396239467,-32,-32,2,-7,19,5,-7,-7
7396260321,-8,-14,-22,9,2,4,21,10
7396260321,0,-74,4,13,-3,-1,1,-2
7396261877,-7,-5,-43,-40,5,0,-4,0
7396261877,8,53,43,1,-21,-15,-13,-11
7396274063,7,-20,-3,25,10,5,4,7
7396274063,-14,15,-2,9,-12,-1,20,1
7396283012,20,-24,9,-3,7,8,-21,-2
7396283012,-23,-39,-30,-9,1,-2,-2,-5
7396297265,8,33,16,-5,-6,-10,-5,2
7396297265,3,36,-13,-13,-8,1,-2,-4
7396304048,-10,60,20,3,1,5,23,7
7396304048,10,35,12,15,-3,-7,-12,-7
7396320463,16,26,-4,-19,-4,0,1,3
7396320463,-7,29,-19,-26,4,-2,-3,4
7396321957,-8,-10,9,2,-4,-1,39,7
7396321957,-2,-47,10,11,-11,-7,-49,-8
7396334041,14,-48,-15,-4,3,12,-3,-12
7396334041,-27,-80,2,25,35,15,6,-7
7396343114,15,-22,-3,24,18,3,-4,2
7396343114,16,-12,3,-13,-19,-17,17,11
7396357224,-24,-14,-10,-15,-13,4,-12,-3
7396357224,5,11,9,3,6,-4,1,-1
7396363994,-13,-21,11,17,22,-8,7,-2
7396363994,5,-7,-18,-3,-19,16,1,7
7396371586,-4,10,9,-16,-21,-25,-4,-5
7396371586,5,-25,-10,-22,-25,-29,-25,4
7396380437,-8,2,-9,15,0,-7,-6,-18
7396380437,1,-1,-11,-14,18,10,20,-1
7396394110,2,3,13,20,24,20,11,8
7396394110,-2,6,9,12,16,-15,5,1
7396402938,9,0,-2,-9,-27,4,-7,1
7396402938,3,16,-3,-4,-8,4,-5,-6
7396417040,-18,5,1,26,17,-3,17,8
7396417040,-16,-16,-5,5,5,3,-7,-5
7396425463,5,11,1,-14,-15,-15,-18,-2
7396425463,0,-23,-4,-10,-7,-2,-11,-12
7396440408,21,36,-30,-18,-14,-4,15,4
7396440408,8,19,17,6,17,1,-21,4
7396441915,-2,-11,-12,-7,-17,-5,-11,-2
7396441915,-15,-21,3,-11,15,-3,0,-12
7396454055,1,-2,-21,-79,-16,-14,-6,2
7396454055,9,20,-4,27,34,10,1,-2
7396462942,14,11,13,7,-27,-14,-4,0
7396462942,-19,-4,76,93,32,14,4,-2
7396477269,-15,-30,-23,-2,30,11,-4,-6
7396477269,-16,-23,-44,-85,-17,-6,-6,-9
7396484127,6,27,38,53,-6,-1,-2,1
7396484127,2,-1,-80,-38,2,-13,3,-4
7396500390,-1,28,18,15,-25,-20,-12,-7
7396500390,9,11,8,-4,-6,19,10,6
7396501954,-5,-1,-23,-1,3,5,1,-1
7396501954,11,34,13,6,-4,-4,13,9
7396514070,5,23,25,22,13,13,5,0
7396514070,5,18,-15,2,-15,-34,-6,-1
7396522931,6,24,7,-13,-3,48,10,7
7396522931,18,3,-8,-12,1,-9,-36,-25
7396537255,1,16,11,-5,-4,-36,25,3
7396537255,-48,-90,18,15,-14,-7,56,1
7396544088,-4,-53,-5,-13,17,19,-85,-12
7396544088,-10,-30,-18,-16,1,-4,40,26
7396560406,36,55,23,20,-15,-17,-58,5
7396560406,-36,-88,-24,-21,-28,-48,-61,-23
7396561931,16,88,16,20,50,59,117,7
7396561931,-16,-9,-19,-5,-4,2,7,1
7396574064,-4,-55,-2,6,1,4,-23,11
7396574064,27,-29,13,1,-10,-5,-22,-10
7396582917,-1,-51,-12,-27,-18,-31,-20,-5
7396582917,-27,-58,3,3,-2,12,-6,-9
7396597256,-1,-25,-2,-5,-5,6,21,-4
7396597256,22,17,16,-6,-13,18,1,7
7396604121,-12,-34,-14,19,14,-15,1,1
7396604121,21,52,-18,-37,-9,-4,3,0
7396620470,-40,-23,13,29,-5,-5,-6,-5
7396620470,16,33,-24,-20,12,23,7,4
7396621934,-28,33,-1,20,4,-17,2,-4
7396621934,22,44,11,6,-10,-9,-14,9
7396634084,-15,31,3,8,19,9,3,-11
7396634084,16,43,1,-2,-8,12,9,5
7396642948,17,-24,-2,-7,-16,-30,0,2
7396642948,-32,-12,-11,-14,8,22,24,-3
7396657296,5,0,3,13,2,6,-19,-9
7396657296,5,31,16,10,6,0,10,4
7396664059,-10,-44,-13,-17,-13,-17,-8,1
7396664059,11,30,-2,-13,-11,-27,-13,1
7396680328,-6,46,1,-12,-3,13,-1,-4
7396680328,23,89,20,14,-5,7,13,4
7396681929,-8,26,-9,-27,-2,-3,-7,-6
7396681929,-11,29,1,14,14,2,-7,5
7396702849,8,-17,-5,-2,-13,-5,4,-8
7396702849,-21,31,-4,42,7,-9,-16,-3
7396704421,3,6,-7,-23,13,-12,3,3
7396704421,7,-90,-6,8,-19,17,25,-2
7396717261,2,-57,-8,-7,6,-9,-19,2
7396717261,1,-33,7,14,2,16,-6,-3
7396723978,22,-61,2,-8,7,-19,-1,3
7396723978,-7,-26,8,-7,-28,-4,-29,-8
7396740447,-15,-22,-18,-16,28,-8,19,-1
7396740447,2,-17,6,6,3,19,2,4
7396741921,13,16,23,15,-11,-8,-6,3
7396741921,9,28,-25,-35,-23,-5,-8,-2
7396754007,-9,-4,5,2,4,-17,11,-2
7396754007,-14,-21,0,-12,-11,24,-4,-7
7396762962,-3,17,-1,9,10,1,-5,1
7396762962,6,7,9,28,18,-8,-1,0
7396777226,-2,-6,4,-11,-10,10,-3,-6
7396777226,-4,-8,-14,-25,-1,-15,-1,0
7396783972,-7,10,-2,6,-5,14,-5,-8
7396783972,-3,4,17,21,14,-3,9,1
7396800304,-4,-23,-7,-3,8,5,7,1
7396800304,10,20,-5,14,9,-15,-2,-3
7396801937,-15,-6,-2,-37,-9,3,-1,-8
7396801937,10,7,9,6,-8,-11,-1,4
7396814058,-3,-2,-9,-19,-13,21,10,0
7396814058,0,1,-3,20,4,-2,-4,-1
7396822965,-4,-7,12,32,-8,-29,-4,-9
7396822965,-10,-3,1,-56,21,44,9,2
7396837255,-3,-6,-9,-7,-23,6,2,-3
7396837255,-1,2,-13,3,8,-9,-5,1
7396844056,7,11,-3,-12,-8,-13,-1,1
7396844056,-5,-14,-2,12,3,-11,-8,-8
7396860408,9,-1,4,36,-21,0,2,6
7396860408,-9,-4,0,-58,23,11,4,-4
7396861938,-2,-5,-8,22,-2,11,6,-2
7396861938,19,28,-5,-20,-14,-3,-1,8
7396882219,-3,-1,-35,-23,18,-11,0,-1
7396882219,-3,-8,9,22,-14,-21,9,0
7396882961,7,24,8,-9,-2,-3,-23,5
7396882961,-2,15,11,11,8,23,29,4
7396897936,-16,-1,16,2,-5,-4,-6,-8
7396897936,-3,-5,8,2,6,2,4,2
7396904067,2,-6,-10,-13,-5,7,18,5
7396904067,17,-14,-3,6,-24,19,-18,-7
7396919763,-9,-10,-4,4,8,-26,-11,2
7396919763,-25,-30,-4,-9,0,51,13,-12
7396920355,-23,-28,0,-3,-11,-40,-24,5
7396920355,15,4,-7,5,8,-4,-20,-2
7396942173,5,17,10,5,-1,19,19,-2
7396942173,4,18,-4,-4,-11,-26,8,-6
7396942971,-12,-13,0,-5,0,10,-20,-5
7396942971,14,-5,12,13,9,10,8,5
7396957917,11,-9,4,-8,-3,-39,-14,1
7396957917,-6,-4,9,17,3,1,-5,2
7396964043,-11,-24,-22,-9,-5,9,8,-8
7396964043,-12,-34,-1,1,3,-29,-2,-3
7396979685,15,-31,11,1,-7,20,12,8
7396979685,1,-14,0,-4,-18,-17,-11,-6
7396980392,25,52,3,0,13,10,13,7
7396980392,-53,-88,-40,-18,2,4,-6,-14
7397002110,1,55,9,9,-1,3,0,-2
7397002110,10,-28,-16,-16,-11,2,-6,6
7397003054,8,12,9,6,4,4,4,-4
7397003054,2,88,18,23,3,-22,-10,-3
7397017890,16,-7,8,-2,-5,10,7,-1
7397017890,-54,-28,-26,5,16,-2,-4,-4
7397024077,-6,1,-13,1,-11,2,4,0
7397024077,27,39,17,-26,0,-2,9,11
7397039684,-28,29,-24,17,-6,1,-11,-16
7397039684,22,52,0,-8,-6,-9,-3,1
7397040364,-19,-23,-6,2,6,3,2,1
7397040364,13,14,24,19,-12,-13,-11,-2
7397062243,-7,-1,31,-27,-12,-7,-8,-7
7397062243,3,11,4,9,13,6,1,3
7397062924,9,23,-45,-34,-2,7,5,5
7397062924,-18,-2,1,3,-1,-13,-4,-2
7397077967,12,11,3,18,-1,2,21,12
7397077967,30,82,28,2,-2,-1,-14,1
7397084039,-1,27,10,-16,-3,18,4,-5
7397084039,-36,0,-21,22,15,-30,0,0
7397099644,7,55,8,19,-4,49,10,5
7397099644,-12,-21,-23,-22,0,-28,-10,-5
7397100568,22,4,17,11,-7,10,12,1
7397100568,-3,-44,0,-4,4,14,-7,-6
7397122162,-11,-57,1,10,16,0,11,6
7397122162,6,-30,-6,-13,-2,2,-1,-9
7397123049,-4,-48,19,15,6,-29,-10,-7
7397123049,-1,-50,-4,13,12,16,7,-1
7397137919,8,-28,-29,-26,16,-18,-10,0
7397137919,6,-23,6,-10,-30,15,5,6
7397144057,-22,-30,17,28,0,-12,-3,-5
7397144057,9,24,-12,-10,8,-4,2,-3
7397159756,1,-13,-10,-40,-33,-23,-19,-1
7397159756,-7,-10,-3,42,10,-3,-1,-1
7397160420,-2,13,-14,-39,4,-14,-4,-6
7397160420,6,22,5,-2,-17,8,3,3
7397182196,2,-10,-3,6,9,16,5,-2
7397182196,0,5,1,10,-12,-30,-15,-6
7397183078,-9,4,25,17,-10,29,10,0
7397183078,9,5,10,20,18,7,4,5
7397197940,-16,-17,-16,-27,10,-7,-11,-6
7397197940,10,14,-13,-11,-37,-9,7,4
7397204059,14,-1,4,29,-16,13,0,1
7397204059,0,-8,-1,-32,8,-15,-1,-5
7397219058,-21,-13,-4,-5,-19,-1,-6,-3
7397219058,-10,-23,2,10,16,2,2,-1
7397226559,6,3,-9,-32,-7,-10,-4,1
7397226559,0,-13,-9,-7,-37,1,-15,-5
7397242243,-1,-6,-7,17,26,-5,-1,-1
7397242243,9,25,28,40,2,11,0,3
7397242940,-12,-10,-33,10,31,4,0,-4
7397242940,-2,5,-11,-22,-8,9,-1,-3
7397258399,11,31,-3,5,-2,-4,0,2
7397258399,0,-14,-8,-10,3,-2,-4,-1
7397263955,-10,6,22,3,-3,1,1,-5
7397263955,7,29,4,23,4,-10,-2,3
7397279068,0,-15,2,-1,2,1,1,1
7397279068,-3,4,5,-11,-4,6,-5,-5
7397286569,5,18,-5,-10,-4,-16,1,-1
7397286569,-17,-16,-16,-7,2,-14,-1,-7
7397302070,9,9,17,4,-9,-4,-14,2
7397302070,4,-20,-2,-5,9,13,29,1
7397303055,-2,-10,-12,-9,-3,9,-27,-10
7397303055,-2,-7,4,-4,1,6,0,8
7397317912,8,0,-3,2,-2,-12,14,-3
7397317912,-10,2,4,-3,5,-33,23,5
7397324047,-10,-9,-5,-5,3,26,-17,38
7397324047,-1,-13,7,8,-6,-18,1,-31
7397339070,18,-15,1,1,2,28,11,-2
7397339070,-11,-3,0,-9,3,7,6,-2
7397346549,5,-27,1,2,-2,1,1,6
7397346549,-1,-22,3,2,3,-6,2,1
7397362173,-12,-18,-2,-1,-4,-15,-16,-1
7397362173,18,-23,-8,-14,-6,1,-3,-5
7397363061,20,18,11,6,2,-17,14,3
7397363061,-15,2,-5,-2,-1,18,-3,6
7397377918,-16,3,3,-1,-1,-9,7,-9
7397377918,10,-23,-2,2,2,-4,-24,9
7397384113,-24,46,1,6,-2,9,7,-14
7397384113,14,69,-9,-9,-2,-5,-7,6
7397399048,31,0,1,8,-9,1,-3,0
7397399048,-33,28,27,27,4,11,15,7
7397406534,62,43,-22,-14,5,-9,0,0
7397406534,-63,48,5,-23,-27,-3,-9,-11
7397422046,-12,37,-2,-12,6,-4,-8,-9
7397422046,39,-46,-28,-71,3,10,23,3
7397422974,-3,62,41,64,-1,1,-9,7
7397422974,-67,-78,-82,-38,-16,-20,-11,-20
7397437945,25,78,96,7,3,2,-5,3
7397437945,-15,5,22,19,17,-7,-20,-9
7397443990,8,-56,31,-26,-9,-1,33,9
7397443990,26,15,-8,41,-1,8,-9,0
7397459067,-26,13,-29,-46,-13,-3,22,-10
7397459067,-25,34,24,19,4,-8,-61,-10
7397466538,-5,-48,-107,-1,14,-3,-8,-12
7397466538,10,21,46,29,13,2,1,7
7397483482,-8,-47,-37,-8,-19,-15,-21,10
7397483482,22,52,-17,8,6,4,25,2
7397484289,-31,-18,-2,-46,-35,13,-24,-11
7397484289,17,37,37,11,20,9,19,17
7397497912,18,53,-30,2,25,12,12,-1
7397497912,-32,19,-1,-19,-20,-2,-12,-6
7397504055,-1,32,33,26,13,3,10,-14
7397504055,16,-28,-5,8,-2,-18,-30,10
7397518975,6,-34,-3,-21,-36,-6,9,6
7397518975,-10,-34,3,-1,5,3,0,-7
7397526535,-7,-68,-2,-4,23,-3,2,-7
7397526535,22,-28,-4,-39,-26,27,17,-1
7397542209,-14,-39,0,46,69,18,-7,6
7397542209,8,-45,-2,16,-10,1,2,3
7397542952,0,9,-2,2,26,-16,-2,-3
7397542952,10,-19,4,-8,-23,-18,4,-4
7397557942,-13,-29,-14,11,-7,-2,-29,-4
7397557942,-2,-39,-8,-31,-19,-2,9,-5
7397563991,-4,-8,6,26,-6,-1,6,2
7397563991,-8,-27,-5,-5,18,0,-1,-4
7397579080,0,-16,1,15,-10,-2,2,-1
7397579080,13,41,-1,12,-2,-5,-7,2
7397586546,-16,-5,-6,-25,-15,-8,-5,-3
7397586546,18,6,14,21,11,7,4,3
7397602085,-20,15,-15,-19,-19,-9,-1,-2
7397602085,2,28,-19,0,12,4,1,-1
7397602906,-15,-11,8,-12,-7,5,0,-3
7397602906,12,8,-8,8,-3,-4,6,5
7397617915,18,7,8,7,-2,-4,-2,-3
7397617915,-3,9,-7,-10,-2,4,-1,4
7397624059,-1,-7,4,-1,-4,-8,-10,-3
7397624059,-2,-6,-4,-15,8,-8,2,-2
7397638999,-4,-12,2,-7,-8,9,19,5
7397638999,-4,-11,4,2,-12,9,-30,-6
7397646520,11,12,3,0,5,1,-8,-1
7397646520,3,-7,-1,-9,3,3,10,3
7397662210,1,3,-1,-6,-7,-11,-6,-3
7397662210,-6,-24,-14,-1,5,-2,10,1
7397662989,2,-8,-2,-7,-15,-11,-4,1
7397662989,9,25,10,-3,-8,-5,-12,-3
7397677915,-16,-7,-3,14,11,25,17,-1
7397677915,-6,-16,-1,5,8,2,-10,1
7397683961,7,18,-1,-1,-6,-5,2,-1
7397683961,-13,-16,7,-6,-9,-7,-3,-4
7397699071,-4,0,-11,-3,-7,-9,-2,-7
7397699071,4,4,1,-14,-13,-10,-2,2
7397706521,6,-1,-9,21,18,6,5,2
7397706521,1,6,-7,0,10,9,4,2
7397723517,-5,-4,0,2,3,-3,-12,-1
7397723517,0,5,7,-6,-4,-6,2,-3
7397724315,-3,0,-3,-12,-13,-9,0,-2
7397724315,7,2,5,7,3,4,-2,-1
7397740806,0,9,-2,2,26,-16,-2,-3
7397740806,10,-19,4,-8,-23,-18,4,-4
7397746596,-13,-29,-14,11,-7,-2,-29,-4
7397746596,-2,-39,-8,-31,-19,-2,9,-5
7397747314,-4,-8,6,26,-6,-1,6,2
7397747314,-8,-27,-5,-5,18,0,-1,-4
7397752179,13,23,5,15,12,17,19,9
7397752179,-7,-5,-15,10,16,7,-5,-6
7397758988,-4,-9,9,0,1,1,3,3
7397758988,14,6,-2,-3,7,3,3,1
7397766424,-18,-10,5,-6,-8,-1,-6,-3
7397766424,7,-4,4,4,-7,-5,-3,1
7397783539,5,-2,-3,-14,-6,-7,-1,-2
7397783539,5,7,6,0,-11,-7,-12,-7
7397784516,-13,-9,7,26,23,8,6,6
7397784516,-5,-6,0,-7,6,4,-2,-3
7397797913,4,1,-3,3,-1,-5,0,-1
7397797913,11,5,-1,-6,-1,-1,4,3
7397804083,20,12,-1,-9,-14,-11,-9,-3
7397804083,-15,-1,-2,-3,-4,-2,8,3
7397818965,-5,-5,-3,-5,-3,-2,-7,-6
7397818965,-38,-22,2,7,4,-2,1,-6
7397826508,-2,-5,-1,-9,-2,-2,-2,-6
7397826508,6,1,7,9,-3,0,0,0
7397842198,7,5,5,-14,-9,-2,0,2
7397842198,-1,6,0,11,15,8,3,3
7397842802,-8,-13,-4,-12,-2,2,5,-2
7397842802,6,7,-2,7,0,0,-2,2
7397866096,-9,0,8,12,4,-2,-5,-4
7397866096,-7,-12,-13,-3,-3,-9,4,1
7397868202,0,3,1,-10,-16,-8,-7,-3
7397868202,-4,-4,-1,6,6,16,-8,-6
7397880948,12,-6,-1,2,4,1,2,6
7397880948,2,15,-2,4,-3,0,2,-1
7397886488,7,7,-8,-8,-1,-2,-2,2
7397886488,-14,-22,-12,-8,-10,-19,-2,-4
7397902163,-9,-19,-4,2,-3,3,-10,-6
7397902163,10,4,1,3,5,3,14,0
7397902902,-16,-6,-3,-18,-14,-7,-4,-4
7397902902,18,2,0,5,2,-7,-4,-2
7397916531,-9,7,1,2,3,4,2,1
7397916531,8,-3,2,2,1,7,0,1
7397924025,21,5,0,11,13,2,0,3
7397924025,-26,0,4,6,3,3,4,0
7397938856,-7,-15,-2,2,0,-5,-3,-3
7397938856,6,5,-8,-16,-13,-14,5,3
7397946461,1,-6,-10,-13,-13,7,-4,-2
7397946461,19,6,2,-2,3,2,-2,2
7397962173,-9,9,2,8,-2,-3,0,-3
7397962173,-6,-2,0,-6,2,1,-3,0
7397963037,0,-4,-9,7,-1,-7,1,2
7397963037,-4,0,-7,-13,-8,-4,1,-2
7397976439,15,3,4,0,-3,2,0,3
7397976439,0,2,-7,-1,-1,-1,-5,-4
7397984056,-16,-8,3,-7,-7,0,-4,-6
7397984056,6,3,8,-3,5,3,1,2
7397998985,-1,1,3,19,8,-1,2,1
7397998985,4,-3,-15,-20,0,3,-2,-1
7398006414,-1,-2,3,3,8,2,2,0
7398006414,2,7,-4,-15,-19,-10,-4,-1
7398022036,-14,-9,-2,-9,0,5,1,-5
7398022036,2,4,8,12,7,0,0,-1
7398022829,-4,0,-1,6,-4,-3,-3,-5
7398022829,-7,-16,-6,-4,-10,-12,-5,-4
7398036499,1,4,-7,-9,-4,-2,-4,2
7398036499,-6,-7,-4,8,0,1,-3,-5
7398043961,5,1,1,-7,-7,-4,-1,-4
7398043961,6,2,2,8,4,5,4,5
7398059119,-12,-3,-5,-15,-3,-4,-5,-2
7398059119,0,-2,3,8,1,0,0,-1
7398066466,0,-3,2,3,2,-10,0,-1
7398066466,3,10,0,-8,-4,9,-1,-4
7398090397,3,-3,-3,-2,-1,0,1,2
7398090397,2,-1,4,-1,1,1,-1,2
7398091064,-12,-3,-1,5,-4,-2,-1,-2
7398091064,2,-5,2,3,1,-5,-6,-5
7398096510,-10,1,12,0,-1,-3,2,0
7398096510,3,-1,-20,-1,9,4,-1,-2
7398104099,4,3,11,3,3,3,0,3
7398104099,-9,-6,-22,-5,-6,-3,-2,-4
7398119045,12,2,2,5,-7,-5,-5,-1
7398119045,-11,-2,7,8,-8,-6,-4,-2
7398126491,1,-6,-14,-24,-1,3,-1,-1
7398126491,-4,4,-1,-10,-6,-1,1,1
7398142167,5,1,-4,4,7,2,4,2
7398142167,-1,4,-6,-10,-1,0,-5,-2
7398142950,-18,-11,4,6,2,0,-2,-7
7398142950,0,-2,2,-9,-4,-3,-3,-2
