timestamp,emg1,emg2,emg3,emg4,emg5,emg6,emg7,emg8
1512715575490417,1,-1,-2,-1,-2,1,1,6
1512715575490417,-2,0,-2,1,-1,-5,-1,-2
1512715575490417,-2,-7,-1,0,2,11,2,-3
1512715575490417,3,4,0,-1,-2,-2,-2,-1
1512715575491417,2,5,0,0,-2,-1,-1,3
1512715575491417,0,-2,0,-2,-2,-1,-3,-1
1512715575492420,-4,-3,-3,0,-1,-5,-4,3
1512715575492420,3,0,-5,-1,-1,2,-1,-1
1512715575504420,-1,-3,0,-4,-1,-2,-2,-7
1512715575504420,0,0,-5,-1,0,-2,0,0
1512715575510423,-4,-4,-1,-2,-3,-6,-1,-3
1512715575510423,0,-6,1,-1,1,0,1,2
1512715575519424,-3,3,1,-1,-1,-3,-3,-4
1512715575519424,-1,-6,-3,0,-3,0,2,0
1512715575534431,1,9,2,-1,-2,0,-2,-4
1512715575534431,-3,-4,-3,-2,-1,-7,-3,-3
1512715575541434,0,5,-3,1,3,5,-2,-2
1512715575541434,-1,-2,0,-2,0,-4,-2,-4
1512715575549421,1,9,0,0,-2,1,4,2
1512715575549421,-1,-6,-1,-1,-1,-2,0,1
1512715575564423,-1,-5,1,-1,-1,-4,0,3
1512715575564423,-2,-4,1,1,1,2,0,-8
1512715575570422,-1,-1,-2,-1,-1,1,-2,-2
1512715575570422,6,7,-3,0,-3,-3,-2,2
1512715575618425,-1,3,-2,-3,-1,2,-1,-2
1512715575618425,0,0,-3,-2,-3,-1,-1,4
1512715575619424,-1,-2,2,1,6,5,2,1
1512715575619424,1,1,2,1,0,-4,0,0
1512715575620426,0,-2,-4,-6,-7,5,3,5
1512715575620426,-1,2,1,0,9,1,-1,-3
1512715575623425,0,0,-2,-2,-5,-5,-4,0
1512715575623425,-2,-3,1,0,-1,-2,-4,-2
1512715575630428,-1,-8,-1,-1,3,-2,-1,1
1512715575630428,-1,5,0,1,-10,0,0,-5
1512715575637430,0,-2,-1,-2,-2,-2,0,2
1512715575637430,-2,0,-4,-2,1,-1,-1,-1
1512715575646425,-1,0,1,-1,-5,-4,-6,-8
1512715575646425,-1,-3,-2,-2,-4,-2,1,3
1512715575661427,0,3,-2,-3,-1,-1,0,-4
1512715575661427,-3,-6,-4,-2,-7,-7,-3,-3
1512715575668428,1,5,2,3,7,4,2,5
1512715575668428,-4,-14,-5,-4,-1,-3,-5,-6
1512715575675428,-2,17,3,-2,-11,1,-2,-2
1512715575675428,-1,-17,-4,2,10,6,0,-1
1512715575690433,-1,-3,0,2,-2,-6,-2,0
1512715575690433,3,9,1,-2,2,-2,0,-1
1512715575697431,0,-2,-1,-1,-8,-4,1,1
1512715575697431,-1,7,-1,-2,1,6,-12,-1
1512715575706435,-4,-6,-2,-1,2,-3,6,-4
1512715575706435,-1,-4,0,2,1,0,3,2
1512715575721429,-1,-7,-3,-3,-2,6,-1,-4
1512715575721429,0,11,6,-1,-2,-2,3,-1
1512715575727429,-1,-13,-7,-1,3,-6,-6,-10
1512715575727429,-4,-2,-1,-4,-7,-5,-3,-4
1512715575735434,-3,-9,-1,-1,-2,-4,-4,-5
1512715575735434,-2,3,-3,1,4,0,0,-2
1512715575750430,2,14,0,-2,-6,-10,-5,-2
1512715575750430,-2,-8,-2,1,6,13,5,0
1512715575757464,-4,2,-1,-1,2,-7,-5,-3
1512715575757464,0,-6,0,-1,-8,2,2,0
1512715575766434,0,0,-2,-2,-2,0,-8,-1
1512715575766434,-1,-6,-1,-2,-4,-8,-3,-2
1512715575780432,-2,-3,-1,2,9,5,2,1
1512715575780432,0,-9,2,0,-1,-2,-2,0
1512715575787437,-1,-4,-3,1,2,-2,2,0
1512715575787437,0,12,3,0,1,2,0,0
1512715575795437,-3,-8,-4,-4,-8,-10,-1,-7
1512715575795437,0,5,-1,-3,-2,-15,-16,-1
1512715575810438,-1,2,1,0,-1,15,15,1
1512715575810438,1,0,1,1,1,2,0,1
1512715575826468,-1,-5,1,-1,0,-6,-4,1
1512715575826468,-1,3,-5,-4,1,7,3,0
1512715575828437,-3,-12,-3,3,3,-6,-7,-3
1512715575828437,-1,4,-4,-4,-2,-5,0,-1
1512715575840439,1,-4,0,0,0,5,5,2
1512715575840439,-1,-2,-1,-2,-2,-5,-15,-3
1512715575847441,3,12,2,0,-5,7,20,4
1512715575847441,1,6,5,3,2,1,-5,0
1512715575855437,0,-5,-2,2,14,2,-2,0
1512715575855437,1,5,-5,-5,-7,-2,5,-1
1512715575870439,-1,-7,-2,-4,-6,-9,-10,-1
1512715575870439,0,-16,1,2,-1,-1,0,-4
1512715575877437,0,16,4,-5,-7,-1,-1,0
1512715575877437,-3,-4,2,6,9,8,11,0
1512715575886440,-3,2,1,0,-4,-3,-8,-2
1512715575886440,0,-2,-3,-4,-5,-7,2,-1
1512715575901438,-3,-5,-2,3,4,-4,-8,-5
1512715575901438,2,1,2,3,1,3,4,5
1512715575907444,-2,-3,-3,-9,-3,-3,-7,-2
1512715575907444,1,5,-2,-2,-2,-11,-8,4
1512715575915577,-2,1,-4,-2,4,7,8,-2
1512715575915577,1,1,7,6,-2,6,10,2
1512715575930445,-2,-5,-1,-1,-1,0,-12,-5
1512715575930445,-2,-11,-3,-3,-2,0,4,-3
1512715575937448,1,17,2,-2,-3,-8,2,0
1512715575937448,-3,-10,-7,-3,-7,-6,-6,-5
1512715575946442,3,8,1,0,1,-2,10,-1
1512715575946442,-3,10,-2,1,-9,-3,6,3
1512715575960451,1,-6,1,3,2,9,-9,2
1512715575960451,-4,-10,-9,-6,-2,-2,3,-6
1512715575967466,3,13,3,0,-1,-11,-25,0
1512715575967466,2,6,2,5,14,9,26,5
1512715575975472,-3,-26,-8,0,1,12,10,5
1512715575975472,0,11,2,-4,-5,-2,-3,-3
1512715575990466,-4,-19,-4,0,-10,-6,2,-2
1512715575990466,-3,3,3,1,0,1,-11,-6
1512715575997466,0,7,-8,-4,-7,-11,-16,-3
1512715575997466,2,-13,3,-3,11,7,2,2
1512715576014460,0,11,4,0,-2,-1,10,5
1512715576014460,-4,-10,-7,-3,-7,-6,-13,-7
1512715576020464,1,-9,-7,-2,1,2,-5,5
1512715576020464,-1,7,-2,-3,-7,-9,-10,0
1512715576027452,-4,1,1,1,7,5,4,-1
1512715576027452,-7,-4,1,0,-4,-6,-24,-11
1512715576035463,0,-5,0,-3,-5,-4,5,-3
1512715576035463,1,-5,1,3,-1,-4,-7,-5
1512715576050468,-2,-9,-13,-7,-2,4,6,2
1512715576050468,3,10,-5,-6,0,-7,-2,2
1512715576057469,-3,1,6,-2,-2,1,-11,-9
1512715576057469,-4,-7,1,0,3,3,15,2
1512715576066463,2,7,6,10,6,7,1,1
1512715576066463,3,-3,-1,-2,-13,-6,-2,-4
1512715576080467,0,-7,-5,-5,-2,-7,1,1
1512715576080467,-3,8,-1,-1,-14,-9,-5,-3
1512715576087472,-3,-6,-1,-2,19,8,-3,-2
1512715576087472,-1,5,2,0,-16,-3,3,3
1512715576095470,3,4,4,3,0,5,11,4
1512715576095470,-4,-3,-1,-3,-4,1,-1,-1
1512715576110472,-1,-1,-5,-8,-8,-13,-6,-5
1512715576110472,1,-5,2,9,25,15,8,0
1512715576117473,-6,-13,-2,-1,-9,-4,-9,6
1512715576117473,2,11,-9,-7,-2,7,10,0
1512715576127471,-1,7,2,2,-2,-4,1,1
1512715576127471,0,-19,2,-5,-1,-2,7,3
1512715576140478,-1,9,-2,-4,-8,-3,1,-4
1512715576140478,-4,-6,-5,-1,2,-13,-12,-3
1512715576147475,4,8,7,2,3,7,6,5
1512715576147475,-3,-5,1,-1,2,6,1,0
1512715576155473,-3,9,-1,-4,-18,-13,-2,-5
1512715576155473,-4,-9,-4,3,-3,-3,-5,-2
1512715576170476,-3,-5,-1,4,2,-8,-11,-8
1512715576170476,-3,-5,-6,-18,-11,2,-4,-3
1512715576177473,2,10,9,10,7,-3,2,-2
1512715576177473,-2,-4,-8,-4,-3,-6,-2,2
1512715576186473,-2,-2,-2,1,0,-3,-3,-2
1512715576186473,-6,-8,-5,2,8,-1,0,-2
1512715576201473,-1,11,1,-11,-10,-2,-2,0
1512715576201473,-1,0,1,-1,-4,-5,1,0
1512715576207616,0,-5,-4,0,11,9,-1,-3
1512715576207616,-2,-6,-7,-7,-15,-21,-15,-10
1512715576223478,4,-2,4,24,11,23,17,13
1512715576223478,2,8,10,2,-1,4,4,0
1512715576230485,-1,-5,-8,-13,-17,-8,-5,3
1512715576230485,-1,6,-3,-1,5,4,-1,-6
1512715576237480,-4,-9,3,2,3,-4,-2,-3
1512715576237480,-3,7,-3,-4,1,-5,-6,-6
1512715576246516,0,-10,-5,-5,-7,5,2,0
1512715576246516,1,11,0,2,9,2,0,4
1512715576260485,0,-15,-7,-8,-2,-8,-2,-3
1512715576260485,3,11,7,4,2,4,1,0
1512715576267477,-5,-1,5,1,-1,-5,-3,-5
1512715576267477,-2,-5,-3,-2,-3,4,-2,3
1512715576283480,1,5,-1,-4,-7,-3,-1,2
1512715576283480,1,-8,-1,-1,2,4,-3,-1
1512715576290481,2,9,3,-5,-14,-5,13,0
1512715576290481,0,0,1,6,12,4,-9,4
1512715576297485,-2,-5,-1,-1,-5,-3,7,-2
1512715576297485,-1,-3,-2,-5,-4,-5,-4,-3
1512715576306479,2,1,1,8,15,7,6,5
1512715576306479,-1,6,7,0,-9,0,-1,0
1512715576320533,-3,-6,-6,-4,8,-6,-5,-5
1512715576320533,2,-8,-1,0,-3,-1,-2,2
1512715576327491,-1,1,3,2,4,6,2,1
1512715576327491,1,7,-6,-5,-3,-10,0,1
1512715576343626,1,1,3,2,9,15,7,1
1512715576343626,-1,1,-1,-1,5,2,2,-1
1512715576350493,-4,-6,-4,-7,-10,-3,-5,-3
1512715576350493,1,-4,-4,0,-7,-4,-2,-2
1512715576357491,-2,-6,-2,-3,7,-5,-16,-4
1512715576357491,0,3,-1,1,-4,-1,14,2
1512715576366486,-1,-3,2,-2,0,6,-1,3
1512715576366486,0,0,0,-1,5,0,12,-1
1512715576380487,-4,-4,-5,-2,-6,0,-6,-5
1512715576380487,-2,-6,-2,-1,1,-4,-5,-3
1512715576387486,-2,-3,-3,-2,1,-2,-2,-1
1512715576387486,-2,0,1,0,-7,-4,-1,1
1512715576403497,-1,-4,-2,-3,1,1,0,1
1512715576403497,0,0,2,-1,1,5,0,2
1512715576410516,-2,-3,-4,-2,-3,-2,-3,-5
1512715576410516,2,1,3,0,-4,-7,-9,0
1512715576417488,1,-1,-7,-3,1,4,2,3
1512715576417488,-3,2,-3,0,-4,-4,-6,0
1512715576426476,0,-2,-1,-3,2,-2,-4,-2
1512715576426476,1,-2,-2,-2,-5,2,-7,-1
1512715576440494,-3,1,1,1,7,0,-1,-4
1512715576440494,2,-5,3,3,2,-7,-1,2
1512715576447495,1,19,-2,1,-6,1,0,-4
1512715576447495,-4,-11,-5,-2,2,0,-3,-2
1512715576463494,-2,4,0,-1,-5,-6,-3,-2
1512715576463494,-4,-10,-5,-5,-1,-1,-1,-2
1512715576470496,-3,-3,0,3,0,-3,-6,-2
1512715576470496,-1,3,2,-4,-3,2,3,0
1512715576477497,0,-3,-2,2,1,-5,-2,-3
1512715576477497,-1,4,2,2,3,6,0,0
1512715576486493,0,-14,-11,-3,-5,-6,-7,0
1512715576486493,-1,-1,0,1,8,8,11,2
1512715576501492,1,4,1,-5,-6,-3,-8,-1
1512715576501492,-4,1,0,-1,1,-5,-4,-3
1512715576507504,-1,-3,-1,2,-3,-3,-2,0
1512715576507504,-2,-3,0,2,0,6,2,0
1512715576523497,-5,0,-1,-4,-9,-8,-3,-3
1512715576523497,0,-7,-1,-2,2,-1,-2,-1
1512715576530498,0,7,3,0,2,3,0,-2
1512715576530498,-1,0,-2,-1,-3,-11,-3,-1
1512715576538497,-1,2,-1,0,2,10,4,0
1512715576538497,-4,-7,-3,-3,-3,-3,-5,-5
1512715576552498,-1,-5,2,2,-1,4,8,1
1512715576552498,-1,3,-2,-1,-1,-5,-5,-2
1512715576560497,1,10,1,0,3,1,-10,1
1512715576560497,-3,-10,-6,-1,-5,-3,5,-2
1512715576567503,-2,-2,3,-2,-4,-4,-2,-2
1512715576567503,0,-2,1,5,19,19,4,2
1512715576583500,-1,-4,-3,-2,2,-5,0,0
1512715576583500,1,-3,1,-2,-5,-2,-1,-1
1512715576590500,2,7,0,-2,-4,-3,0,1
1512715576590500,-1,-8,-3,-3,-6,-4,-3,-4
1512715576605502,-3,2,0,0,-2,-5,1,-3
1512715576605502,1,5,-1,0,1,3,1,3
1512715576612537,0,-3,-1,-3,-1,-1,1,0
1512715576612537,-4,-8,-2,0,-2,-6,-12,-4
1512715576620500,1,-1,0,-2,2,5,12,0
1512715576620500,1,-2,-2,1,-1,3,2,-1
1512715576629499,1,4,-1,-5,2,-3,-4,-1
1512715576629499,1,-5,1,0,-2,-2,0,2
1512715576643509,-2,-4,-3,1,-2,-5,-2,-1
1512715576643509,0,3,2,0,-2,-7,-4,-2
1512715576650503,-3,-8,-6,0,3,3,2,-1
1512715576650503,1,5,4,1,-4,-1,-1,-1
1512715576665507,-2,-5,-1,1,-2,-5,-2,-3
1512715576665507,1,-4,0,-3,-2,10,4,4
1512715576672504,-1,5,-1,-3,-5,-9,-7,0
1512715576672504,1,3,-1,0,-2,0,2,0
1512715576689539,1,0,-2,-3,-4,-5,-3,-1
1512715576689539,-5,-1,-1,-2,1,-5,-6,-5
1512715576690505,1,-8,1,1,0,2,-4,-2
1512715576690505,-3,4,-5,-3,-8,1,4,0
1512715576703543,1,1,4,0,7,2,-2,0
1512715576703543,-1,3,-4,1,6,4,3,2
1512715576710508,-4,-5,-1,1,2,2,-2,-1
1512715576710508,1,0,0,-2,-2,-5,-2,-1
1512715576725509,-1,-6,-8,-2,-4,-6,-1,-1
1512715576725509,0,6,5,-2,-1,5,-5,2
1512715576732512,-3,-3,0,-1,-4,4,0,-4
1512715576732512,0,1,0,0,0,-2,0,0
1512715576748507,-1,0,-2,-2,0,1,3,-2
1512715576748507,0,4,-2,1,0,-9,-9,-1
1512715576749508,-2,-5,0,-1,1,7,14,2
1512715576749508,0,7,-3,-2,0,2,-2,-5
1512715576764507,-2,-8,3,1,-1,-2,-3,0
1512715576764507,2,4,-7,-3,2,2,4,0
1512715576770512,1,0,2,-1,0,-4,-6,-1
1512715576770512,-2,-9,-4,-3,-5,-6,-3,-3
1512715576785532,1,4,-1,2,-1,5,3,3
1512715576785532,1,-1,-1,0,-1,-4,-4,-3
1512715576792510,-3,-5,-3,-1,0,1,-1,-1
1512715576792510,-1,-3,-3,-5,0,-6,-1,-1
1512715576808560,-2,-3,4,-1,-3,1,-6,-4
1512715576808560,-1,0,3,2,-3,-2,3,1
1512715576809510,-1,-3,-5,-3,-6,-2,-4,0
1512715576809510,-2,0,-1,-1,-5,-2,-2,-2
1512715576824513,-1,-5,-5,-3,8,-1,0,-3
1512715576824513,-3,0,-1,-2,-1,-4,-7,-4
1512715576830514,-1,-1,-2,1,1,-1,10,-1
1512715576830514,1,2,1,0,2,4,1,-1
1512715576845516,1,2,-2,0,-3,-2,0,-1
1512715576845516,-2,-5,-1,-2,-2,-2,2,0
1512715576852517,2,2,-1,0,-5,-8,-7,-1
1512715576852517,-1,-11,-3,-1,3,3,0,1
1512715576868515,-1,9,1,-1,-1,-5,-1,-2
1512715576868515,-3,-10,-3,0,2,2,4,1
1512715576869531,-3,-2,1,0,1,1,-5,-3
1512715576869531,2,5,1,-1,-4,0,-1,3
1512715576884518,-4,-4,-2,1,-2,-1,0,-2
1512715576884518,2,4,-4,-2,-4,-6,-3,-1
1512715576890518,-1,0,-1,-2,1,-2,-2,-2
1512715576890518,-1,0,2,3,3,7,5,1
1512715576906519,-3,-5,-5,-4,-5,-4,-3,-2
1512715576906519,1,0,1,-1,1,1,2,0
1512715576912517,-1,-2,-1,0,0,-2,0,-1
1512715576912517,-1,4,-2,-1,0,-1,-3,-3
1512715576928520,1,-1,1,0,-3,2,0,1
1512715576928520,-3,-2,-3,0,-3,2,-2,-2
1512715576929521,-1,-2,1,-1,-3,-11,-4,0
1512715576929521,1,3,-1,0,3,8,2,1
1512715576944520,-2,-2,1,0,-3,2,1,-2
1512715576944520,-2,-1,-2,0,-2,-3,-10,-3
1512715576950522,0,-6,1,1,2,7,11,-1
1512715576950522,-4,-3,-2,-2,-4,-6,-2,-2
1512715576965537,1,6,0,0,-1,-6,-3,0
1512715576965537,-1,-7,-3,-2,-1,2,1,-1
1512715576972523,0,2,-3,-1,1,1,-3,-3
1512715576972523,-2,-5,-1,-3,-3,-4,-3,-2
1512715576988527,0,1,3,0,2,0,0,1
1512715576988527,-1,0,-2,1,0,1,2,-1
1512715576989542,-2,-2,0,-2,-4,-5,-4,3
1512715576989542,-1,-2,-3,-3,0,0,2,-3
1512715577004530,-1,-2,-3,-1,-1,1,-3,-1
1512715577004530,0,1,-3,-1,-1,-2,-1,-1
1512715577010567,-1,-2,0,-2,-6,-3,-4,-3
1512715577010567,-2,-2,1,0,7,-7,-6,-3
1512715577025528,-2,0,1,1,1,6,4,0
1512715577025528,0,-2,-2,-1,2,2,0,-2
1512715577032528,1,-1,-2,0,2,11,2,0
1512715577032528,-2,0,-3,0,-4,-7,-5,-2
1512715577048529,0,-5,-3,-3,-3,-5,-2,-3
1512715577048529,-1,1,1,-2,-4,-5,-1,-2
1512715577049546,0,-1,-2,-2,-5,-6,-4,-1
1512715577049546,0,-2,-1,0,2,2,-1,-1
1512715577064535,-1,-2,0,-2,-2,2,-1,-1
1512715577064535,-2,1,3,-1,-3,2,0,-1
1512715577070535,-3,-2,-3,-2,0,-3,-2,-2
1512715577070535,-2,0,0,-1,-5,-2,0,1
1512715577085535,0,-2,-2,-3,-1,-4,-1,1
1512715577085535,-2,-2,-1,-4,-1,-3,-2,-5
1512715577092539,-2,-3,-2,-3,-4,-4,-3,-1
1512715577092539,1,4,3,0,1,1,1,2
1512715577108539,-1,-3,-3,2,1,0,-2,-2
1512715577108539,-1,-2,-1,0,-2,3,1,1
1512715577109538,1,4,2,2,1,-6,0,1
1512715577109538,-2,-3,-4,-2,0,10,2,-2
1512715577124541,0,1,-1,0,-2,-4,-1,1
1512715577124541,-3,-1,0,-4,0,-2,-3,-2
1512715577130547,0,1,-1,-2,-3,-3,-4,-3
1512715577130547,-2,-3,-1,-3,-10,-15,-3,0
1512715577145544,-1,0,0,1,2,3,-1,-2
1512715577145544,0,-1,-1,3,4,3,-1,0
