timestamp,emg1,emg2,emg3,emg4,emg5,emg6,emg7,emg8
68721029117,-2,-1,-3,-3,-1,0,2,0
68721029117,-1,-2,-1,0,-1,0,-3,-1
68721029822,-2,-1,0,1,4,3,2,0
68721029822,-1,-3,-2,-2,0,-1,0,-1
68721030769,1,0,0,0,-4,-4,-3,0
68721030769,-2,0,0,0,1,2,2,-1
68721031514,0,1,-2,-2,-2,-2,-2,-2
68721031514,-1,-3,-2,-3,0,1,0,0
68721042189,-1,-1,-1,-2,-4,-1,-1,-2
68721042189,-1,-2,-1,-3,-4,-3,-3,-3
68721051565,0,-1,1,1,0,0,0,0
68721051565,0,-1,1,1,1,2,0,-1
68721057079,0,0,-2,0,-1,-1,-2,0
68721057079,-2,-2,-1,2,0,0,0,0
68721072914,-1,-2,-2,-2,-3,-2,-1,-3
68721072914,-1,1,-2,-3,-4,-5,-3,-2
68721080900,-1,-4,-4,-2,-1,0,-1,-2
68721080900,-1,0,-4,-2,-2,-4,-3,-1
68721087224,-1,-2,1,2,3,0,-3,0
68721087224,0,3,1,-1,1,1,1,2
68721102104,-1,-4,-2,-3,-1,0,-1,-2
68721102104,1,1,1,2,2,0,1,0
68721110643,-2,-2,-5,-3,-5,-4,-1,-2
68721110643,0,0,0,-1,-1,-2,-3,-1
68721150274,0,0,-2,2,2,0,-1,0
68721150274,-1,-3,-7,-10,-2,0,-1,-3
68721151261,-2,-1,-4,-3,-2,-2,-2,-2
68721151261,-3,0,12,10,-1,-2,-2,-2
68721151913,-1,1,-1,-5,-2,-1,-2,-1
68721151913,1,-1,-4,3,0,1,2,0
68721155186,0,0,-1,4,4,2,2,2
68721155186,-3,-4,-4,-14,-3,-1,-1,-2
68721162002,-1,1,-2,3,-3,-2,-1,-1
68721162002,-1,0,6,6,2,-1,-1,-2
68721170227,-2,-3,5,-5,-5,-1,-1,-1
68721170227,0,-2,-3,4,-1,-1,-2,-1
68721176748,-1,0,-2,-6,-5,-2,-2,-2
68721176748,0,-1,-8,-3,-1,1,0,3
68721192772,-2,-3,2,6,0,-2,-3,-5
68721192772,-1,0,-3,-11,2,1,-1,-2
68721199537,-2,-3,-5,-2,-1,1,0,-1
68721199537,1,4,4,5,-2,-1,-2,0
68721206987,-2,-3,-1,-8,-6,-3,-1,1
68721206987,-2,1,-1,0,0,0,0,2
68721221978,-4,1,-4,4,0,0,-2,-8
68721221978,2,0,22,3,-2,-2,-2,-1
68721230164,-5,1,-11,-10,-1,-1,-2,-4
68721230164,8,0,-7,1,1,0,0,-1
68721237012,-1,0,0,-10,-6,-2,0,3
68721237012,-2,-3,-7,-4,-4,-3,-1,-2
68721252746,-3,-3,3,3,3,2,-1,0
68721252746,-2,-1,-7,-2,1,-1,0,-2
68721259462,-2,1,15,11,1,0,0,1
68721259462,-2,-2,-9,-9,-1,0,2,-1
68721266804,3,5,1,1,-4,-4,-3,0
68721266804,-1,-3,-7,-9,-1,1,1,2
68721281898,2,-1,2,1,-3,-4,-3,1
68721281898,-2,-1,0,-3,-1,-2,0,-1
68721289970,2,0,0,4,6,3,1,-1
68721289970,0,1,3,6,-1,-4,0,0
68721296930,0,-2,-7,-4,-2,-4,-2,-1
68721296930,-3,-1,5,5,2,0,-2,-3
68721312639,0,-2,-4,-2,-2,-1,1,1
68721312639,-1,-1,3,2,-2,-3,-4,-1
68721319503,-1,-3,-4,-3,-2,0,-2,-1
68721319503,-2,-2,-11,-8,-5,-1,-1,0
68721326799,0,-1,-1,0,-1,0,-1,-1
68721326799,-4,-1,-3,-3,-1,0,-1,-2
68721341930,0,0,23,9,0,-3,-3,-2
68721341930,-3,-4,-9,-5,-1,2,1,-1
68721350137,0,-1,-7,-5,-2,-1,-2,-1
68721350137,0,-4,-12,-5,0,2,1,0
68721357020,-1,0,2,4,3,2,1,4
68721357020,2,-2,6,4,-1,-3,-5,-6
68721372526,-6,-3,-4,-6,-9,-8,-5,-3
68721372526,0,0,0,6,1,5,3,2
68721379545,1,-1,-9,0,5,5,1,0
68721379545,-2,0,0,1,0,-1,-1,2
68721386867,5,-1,-1,-6,-3,-1,-2,0
68721386867,-9,-1,4,3,-3,-2,-4,-12
68721401852,5,-2,-3,-5,0,-1,0,5
68721401852,2,-1,-3,-5,-4,-2,1,0
68721410185,4,0,0,2,-1,-1,-3,-7
68721410185,-18,0,3,1,-4,-3,0,-8
68721417004,21,-1,-4,-4,-2,0,-3,7
68721417004,-13,0,-1,-1,-3,-6,-3,2
68721432549,9,2,4,8,8,7,5,1
68721432549,5,-3,2,-5,-3,-1,-1,-10
68721439565,-6,-1,-6,-2,4,4,3,-2
68721439565,-1,0,1,1,-2,0,-1,0
68721446941,-2,-3,1,-2,-4,-5,-4,-1
68721446941,3,-1,-1,-3,-5,-4,-5,4
68721461867,-7,0,-1,-2,-2,1,5,-4
68721461867,1,-3,-1,-1,-1,0,-2,0
68721470193,-8,-2,-2,-1,-1,0,2,-4
68721470193,4,1,0,-1,2,0,0,4
68721476965,-6,-2,-2,-2,-1,-1,-2,-3
68721476965,1,2,0,-1,-2,-3,-1,-1
68721492736,-3,0,0,2,1,1,0,-1
68721492736,0,-2,-2,-2,-2,-5,-4,2
68721499492,-2,-1,-2,-3,-1,-1,-4,-3
68721499492,2,1,-4,-4,-1,0,0,-1
68721515200,-2,-1,1,2,-2,-1,-1,0
68721515200,-1,-1,2,3,3,1,0,4
68721521756,-5,-2,0,0,-1,-2,-2,-4
68721521756,1,-2,-2,0,0,2,-1,-2
68721530057,-2,-1,0,-2,0,-1,-2,2
68721530057,-1,1,0,-2,-2,0,0,0
68721537025,-2,1,-3,-5,-4,-3,-2,-2
68721537025,-1,-2,1,-2,1,1,2,-2
68721552758,0,0,0,6,4,1,0,2
68721552758,0,-1,2,3,-1,0,0,0
68721559517,-1,2,1,-3,-3,-2,-1,-1
68721559517,0,-2,-1,1,2,1,-1,0
68721575159,-3,1,-5,-8,-3,-4,-4,-2
68721575159,-2,-3,3,1,-1,0,0,-2
68721581948,-1,0,-2,-1,-5,-8,-6,-2
68721581948,-1,1,2,2,4,5,1,-1
68721590132,-1,-1,-5,-4,-2,-1,1,0
68721590132,0,1,-6,-5,-4,-4,-4,-1
68721596935,-4,-5,2,-1,1,0,0,-3
68721596935,-1,0,-2,0,0,-2,-2,-1
68721612776,-1,-3,-3,1,0,0,1,5
68721612776,-1,2,2,-2,-2,-2,-3,-3
68721619439,-4,-2,-2,-2,-1,-2,-1,-1
68721619439,0,0,1,0,-3,-6,-3,-2
68721643195,-1,-5,-5,-5,-3,-2,0,0
68721643195,0,-2,3,4,4,4,4,2
68721644800,0,2,-11,0,3,2,0,0
68721644800,-3,-2,2,9,2,1,3,5
68721649579,-1,1,8,0,-3,-3,-4,-6
68721649579,-1,-5,-9,-3,-2,-1,-2,-1
68721658275,-1,-3,-1,-1,0,-3,-2,-2
68721658275,2,-1,-5,-7,-3,-2,-1,0
68721672709,-2,0,-2,6,-1,2,-1,-2
68721672709,1,-2,-7,-4,0,-2,-1,0
68721679327,-2,-2,1,2,-3,1,0,-1
68721679327,-1,4,2,0,-2,2,0,-2
68721695232,-1,-6,3,-5,-1,-4,-2,2
68721695232,-1,4,4,2,-3,-4,-2,-1
68721701911,-1,-4,-7,0,4,2,3,1
68721701911,0,-4,-4,-11,-4,-2,-4,-2
68721709492,-1,-1,-1,-10,-5,-2,-2,-3
68721709492,0,-4,-1,9,-2,-1,0,1
68721718338,-1,-1,10,5,7,4,0,2
68721718338,1,3,5,-1,-4,-2,2,0
68721732590,-2,0,-5,3,0,-2,-1,-1
68721732590,-2,-4,16,8,8,-3,-5,-4
68721739310,-3,5,-7,2,-2,0,-1,-3
68721739310,-1,-5,5,-5,0,-2,-1,-3
68721755203,-2,-3,-3,-3,-7,-4,1,-1
68721755203,2,3,-11,-7,-5,-2,-2,0
68721762046,2,1,15,5,-1,-3,-1,0
68721762046,-1,-1,-7,-2,1,-2,-3,-3
68721769325,-3,-3,-7,-12,2,1,2,-1
68721769325,-1,4,-12,-14,-20,-6,-3,-3
68721778319,-1,-2,-12,-9,6,-1,-3,-1
68721778319,0,-2,3,9,-17,-10,-6,-5
68721792812,-1,-3,4,3,13,3,1,0
68721792812,-3,-11,-15,-8,-9,1,4,2
68721799488,0,3,9,6,-8,-4,-2,0
68721799488,-3,-8,0,0,10,-2,-6,-6
68721815222,-1,-4,8,-8,-19,-9,-1,1
68721815222,1,6,-3,11,12,4,0,-3
68721821999,2,0,-1,-5,2,8,10,10
68721821999,-3,-2,4,10,-31,-19,-11,-3
68721829542,0,-2,-11,13,53,21,9,1
68721829542,-3,-5,21,-5,-20,-10,-6,-5
68721844568,-2,0,7,-16,-38,-17,-8,-2
68721844568,1,0,-16,-21,-3,5,5,8
68721852821,-1,-2,-10,22,28,14,6,0
68721852821,5,4,-3,22,27,8,4,6
68721859500,-4,-5,14,41,41,11,2,-3
68721859500,0,2,0,-45,-21,-12,-7,-7
68721875303,-3,0,-8,41,6,-8,-7,-8
68721875303,1,5,-1,-39,-17,-6,1,7
68721882071,2,-11,-13,-4,3,15,7,3
68721882071,7,8,1,41,66,21,11,9
68721889464,-6,-5,0,-16,-31,-15,-12,-9
68721889464,-4,-1,10,19,4,-4,-5,-7
68721904452,-1,0,-10,-34,-38,-21,-9,-4
68721904452,-6,-2,-3,-36,-13,-2,4,-4
68721913262,0,-2,-14,1,3,3,-5,-1
68721913262,-2,-3,11,7,-11,-1,-2,0
68721919490,-2,1,-10,-10,1,-6,-3,-5
68721919490,-7,-6,1,20,3,10,2,-6
68721935892,4,8,10,-17,-28,-13,-6,1
68721935892,-5,-9,-12,-13,-2,6,2,-2
68721941980,-1,-3,-3,16,46,9,-3,-1
68721941980,0,-1,0,8,-9,-6,-11,-5
68721956974,1,3,-4,-25,-20,-5,1,1
68721956974,-2,-1,-2,-20,-33,-14,-5,-4
68721964546,3,5,10,29,45,12,10,4
68721964546,4,3,5,4,25,5,5,6
68721973276,-3,-4,4,35,27,5,-2,1
68721973276,-6,-9,-17,-40,-49,-14,-7,-6
68721979451,5,5,6,35,43,14,4,1
68721979451,-2,-1,-2,-9,-11,-1,2,0
68721995805,3,5,5,5,-5,-7,-3,-1
68721995805,-2,0,1,-3,7,8,6,1
68722001898,-4,-7,-12,-30,-50,-18,-8,-4
68722001898,-3,-5,-5,-17,-2,-1,1,0
68722016937,-1,-1,7,4,-7,-1,0,-1
68722016937,0,-3,0,10,12,4,0,1
68722024334,0,-1,-8,-21,-13,-1,-2,-1
68722024334,-5,1,2,17,-7,-4,-4,-1
68722033308,1,2,11,-16,-16,-4,-2,-1
68722033308,1,0,-6,-24,9,-2,-1,-3
68722039495,-1,-5,-3,47,2,9,7,2
68722039495,0,0,-6,-10,13,-7,-7,-2
68722055811,0,0,-1,7,15,7,5,4
68722055811,1,2,-5,-19,-13,-4,-3,1
68722061751,-5,-4,-1,-8,-26,-8,-4,-4
68722061751,0,0,-2,3,-2,1,0,-2
68722077066,-2,-4,-2,-9,-22,-2,1,1
68722077066,0,0,-1,18,18,2,-1,0
68722084488,-3,1,0,-20,-21,-8,-5,-5
68722084488,0,-2,-1,9,4,4,4,1
68722093321,0,-2,-4,-25,-23,-10,-5,-3
68722093321,0,0,0,11,-7,7,3,-1
68722099474,-1,-2,-3,-13,2,-9,-4,-2
68722099474,4,2,10,19,10,3,1,2
68722115870,-1,-1,-2,-28,-22,-8,-3,-3
68722115870,1,-2,4,38,72,11,2,1
68722121958,-2,1,3,-9,-14,-8,-3,-3
68722121958,0,-2,-8,-6,-25,-3,-2,-3
68722136938,-1,-1,-3,-8,11,0,-1,-2
68722136938,-3,4,-1,-2,-12,-4,-4,0
68722152745,-1,-5,-2,13,0,1,1,-3
68722152745,-3,-3,-4,12,0,-6,-1,0
68722159930,0,1,-5,-16,-10,3,3,2
68722159930,0,-3,-5,21,11,2,-1,-3
68722160913,-2,0,2,-17,-9,-6,-7,-2
68722160913,-3,-5,-5,-14,-7,2,3,0
68722175775,1,4,8,42,20,1,1,2
68722175775,-1,-1,4,-5,-1,1,1,-1
68722181752,-2,-1,-7,-23,-12,-1,1,2
68722181752,-1,-1,6,2,-16,-8,-6,-3
68722196952,-3,-1,0,-2,10,2,-1,-1
68722196952,1,3,9,8,3,0,2,0
68722204444,-1,-1,-2,-20,-18,-3,-2,-2
68722204444,-1,0,-1,12,20,1,-2,-1
68722220775,-3,-5,-6,-6,0,3,2,0
68722220775,1,0,-4,-6,-22,-5,-2,1
68722221454,0,-1,0,7,9,-1,-1,1
68722221454,-3,-8,-9,-11,-27,-5,1,-2
68722235878,1,4,8,27,47,7,1,1
68722235878,0,-1,-4,0,10,1,-2,-2
68722242048,-1,-3,2,4,-15,-5,-5,-1
68722242048,-2,0,-6,-16,-11,-2,-1,-2
68722256874,-1,-3,-3,10,9,5,-2,-1
68722256874,-1,-4,-6,-9,-6,-5,-2,0
68722264466,-1,0,2,7,13,2,-2,-2
68722264466,0,0,-5,-11,-10,0,1,1
68722280067,-1,1,2,-6,-7,1,0,-2
68722280067,-2,0,2,3,3,-2,-3,-3
68722280873,-1,-1,-5,-8,-6,-3,-3,-2
68722280873,0,0,1,7,4,-3,-1,-1
68722295859,1,-2,-2,-7,-15,-3,-2,-1
68722295859,-2,-3,-4,-3,-13,-4,0,-1
68722301817,0,2,5,7,12,2,0,1
68722301817,0,-1,-2,3,-1,-1,-2,-1
68722317051,-1,-2,-7,-12,-13,-6,-3,-1
68722317051,-2,-2,-3,3,-2,-3,-3,-4
68722324403,-2,-2,0,5,-2,-1,0,0
68722324403,-1,-2,1,-16,2,2,2,0
68722340128,-3,-3,-1,3,4,1,0,-3
68722340128,-1,-4,-1,8,2,-3,-3,2
68722340803,-2,0,-1,-12,3,3,6,-1
68722340803,1,0,1,-2,-1,-8,-4,-3
68722355800,-4,-1,-3,-18,-25,-4,2,-3
68722355800,-3,1,-3,-1,2,0,0,0
68722361850,0,3,-3,1,10,3,-1,0
68722361850,-1,-2,2,13,8,2,0,-1
68722377044,0,-2,-1,13,32,4,1,2
68722377044,1,0,-2,-5,-2,-1,-1,-1
68722384480,-2,-5,-4,-3,-10,-2,-3,-2
68722384480,0,2,-1,0,1,3,-1,0
68722400125,-1,-2,-2,-2,-16,-6,-2,-2
68722400125,0,0,-1,-5,4,1,-1,0
68722400787,-2,-1,4,3,-5,4,1,0
68722400787,-1,-1,-1,5,7,0,-2,-3
68722415801,-2,-1,-1,-15,-13,1,-1,0
68722415801,-2,-2,-5,6,1,-4,-2,-2
68722421824,0,0,-3,-15,-21,-12,-5,-2
68722421824,-2,-3,-2,-2,4,2,0,0
68722437021,-1,0,4,18,22,2,0,0
68722437021,-2,-2,0,3,-27,-7,-2,-3
68722444346,2,3,2,13,44,10,1,1
68722444346,-3,0,-4,-20,-23,-4,-3,-1
68722459963,0,-1,-1,-2,-17,-8,-5,-2
68722459963,-2,-2,-7,-4,13,5,2,1
68722460970,-4,-6,-1,2,-5,-1,2,1
68722460970,-3,-3,-2,-12,-10,-1,0,-1
68722475795,2,0,0,-5,14,1,-1,0
68722475795,0,2,2,21,14,-3,-3,-2
68722481925,0,-1,-10,-14,-11,-5,-6,-5
68722481925,-1,0,-1,7,9,1,1,-1
68722496824,0,0,-2,-1,-16,-1,-1,-1
68722496824,-1,0,1,-11,7,6,2,2
68722504491,-1,-4,-2,6,6,-2,0,-1
68722504491,-2,-1,2,3,-2,-3,-3,-2
68722520031,-1,0,-3,-1,-7,-5,-4,-4
68722520031,-2,-4,1,-5,2,9,9,3
68722520777,0,1,2,9,8,6,0,0
68722520777,-1,-2,-4,3,3,-1,-1,-2
68722535823,-1,-3,0,-11,-3,4,1,1
68722535823,0,2,5,3,1,-2,-2,-2
68722542031,-2,-3,1,1,2,-3,-1,2
68722542031,0,-1,1,-3,3,-1,-2,-2
