timestamp,emg1,emg2,emg3,emg4,emg5,emg6,emg7,emg8
68646908248,-1,-1,-2,-2,-5,-5,-2,-1
68646908248,-2,-3,-2,-5,-9,-3,1,-1
68646909822,-1,-3,-2,5,9,-2,-2,-1
68646909822,-2,0,0,1,4,0,-1,-1
68646913449,-1,-1,-2,-3,-2,-1,-3,-1
68646913449,-2,0,0,0,0,0,-1,-1
68646914943,0,-1,0,-1,-1,0,-1,-1
68646914943,-1,-2,-2,-1,-1,0,0,-1
68646919797,1,-2,-1,-1,-2,0,-2,-1
68646919797,0,1,0,-1,2,0,-3,0
68646931134,-1,0,-2,-1,-5,-1,0,0
68646931134,1,-2,-2,-2,-4,-2,-1,-1
68646944349,0,-1,-2,-2,-3,-3,-1,-2
68646944349,0,0,-1,-1,1,3,0,0
68646949954,0,0,0,-8,1,-3,-2,-3
68646949954,-2,-1,-2,8,1,-1,1,-2
68646958661,-3,0,5,-5,-8,-3,-2,0
68646958661,-1,-2,-8,3,0,-1,0,-1
68646973572,1,1,5,1,-2,4,1,1
68646973572,1,-2,-2,-10,-8,-6,-4,0
68646979915,-2,-1,-1,6,0,1,1,-2
68646979915,0,0,3,2,11,1,1,1
68647018462,0,0,-2,-6,-15,-3,-2,0
68647018462,-1,-1,-2,1,6,-1,0,0
68647026717,-1,-1,0,0,-3,-1,0,-2
68647026717,-1,1,1,-2,-4,-1,-1,-2
68647027474,-1,-1,-3,0,-4,-4,-1,-1
68647027474,-1,-2,1,-5,-2,-1,0,-1
68647029013,-1,-1,-2,5,-5,-3,-2,0
68647029013,-1,-1,2,4,8,0,0,-1
68647039765,0,-2,4,0,2,-1,0,-1
68647039765,-2,-1,-2,-3,-6,-4,-2,-2
68647048543,0,0,-2,-5,-2,-2,-1,-1
68647048543,-2,0,-4,-1,-1,2,2,1
68647062790,-1,0,0,1,2,0,-2,-1
68647062790,0,0,-1,0,-7,-2,-1,-1
68647069699,0,-1,-1,-2,5,0,-3,0
68647069699,0,-2,-1,-4,-7,-5,-3,-2
68647077275,0,-2,-1,2,7,6,2,-1
68647077275,0,0,-3,-2,-4,-2,-1,-1
68647086070,-2,-1,-2,-6,-11,-3,-2,-2
68647086070,0,-3,0,3,4,0,0,1
68647099603,-3,0,-3,1,1,0,0,-2
68647099603,-1,-1,0,-2,-4,0,-2,-1
68647108557,-2,-1,2,2,2,-1,0,-3
68647108557,-3,0,0,-12,-9,-1,-1,-3
68647114677,-2,-2,-11,0,-11,-6,-3,-3
68647114677,1,0,2,7,14,8,4,2
68647129720,0,2,2,-3,-2,-1,1,0
68647129720,-3,-2,-2,-2,-5,-3,-3,-2
68647137340,-1,-2,1,-5,0,2,-1,-1
68647137340,-2,-1,0,-3,-5,-3,-4,-2
68647146060,-1,-3,-2,2,-1,0,0,-3
68647146060,1,1,-3,-3,5,-2,-2,-1
68647159728,-1,0,2,-3,-2,-4,-2,-1
68647159728,-1,-1,-1,1,1,-1,0,-1
68647168560,-1,-2,0,0,2,1,1,-2
68647168560,-1,0,-2,0,-4,0,-2,-1
68647174786,-2,-1,0,-1,3,1,1,-1
68647174786,-1,-1,-3,2,2,-2,-1,-1
68647189681,-1,-1,1,-4,-5,1,-3,-2
68647189681,1,-2,-2,1,-1,-1,-1,-3
68647197082,-1,-1,-1,3,5,0,-1,1
68647197082,-1,-2,1,-4,-8,-3,-2,-2
68647206190,-1,-1,-4,-1,1,1,0,0
68647206190,0,-1,-1,1,-1,0,-2,-1
68647219699,-2,-2,-4,0,2,3,1,-1
68647219699,-1,-1,-2,0,-3,-2,-2,-3
68647228562,0,0,-1,1,3,2,2,1
68647228562,0,0,-2,1,1,0,0,-1
68647234636,0,0,1,-3,-4,-1,-1,0
68647234636,-2,0,-2,-3,-1,-2,-5,-2
68647249781,-1,-1,-3,1,-7,-6,-2,-1
68647249781,-3,-2,-1,-1,7,1,1,1
68647257273,0,-1,-1,-2,-1,-2,-3,-2
68647257273,-1,-3,-2,-1,-1,0,0,-2
68647265932,2,0,0,-3,-2,-1,0,7
68647265932,-4,-1,-2,-1,-3,-1,-4,-16
68647279687,2,-2,1,1,3,1,1,0
68647279687,-10,0,-1,-1,0,0,0,-2
68647288589,15,-2,-4,0,-2,-3,0,1
68647288589,7,0,1,1,-3,-3,-2,5
68647294699,-3,-2,-4,-2,-1,0,-3,0
68647294699,1,-1,-1,0,0,1,5,-4
68647309742,-8,-2,-1,-1,2,2,-3,2
68647309742,2,1,2,-1,-3,-2,0,-2
68647317023,-5,-1,-2,-1,-1,1,1,3
68647317023,4,0,-2,-1,-1,1,-5,-11
68647326001,-2,-1,-2,-2,-1,-2,-2,-8
68647326001,0,0,-1,-1,-3,-3,0,3
68647339762,-14,-1,1,-2,-3,1,2,-6
68647339762,7,-1,-3,1,6,-4,-4,5
68647348472,-22,-2,-3,-1,0,-1,2,-1
68647348472,10,-1,-1,-3,-7,-5,-3,0
68647354765,-11,-4,-5,0,1,2,5,17
68647354765,13,7,4,1,1,0,-1,-7
68647369656,-2,-3,0,0,1,0,-4,-5
68647369656,-6,-1,-3,-1,0,2,2,6
68647377057,-1,0,7,0,-3,-4,-7,-11
68647377057,1,-3,-5,-3,-5,-3,1,5
68647392194,0,1,-2,-3,0,-3,-4,-3
68647392194,-6,0,1,3,1,3,2,0
68647399721,12,-3,1,1,4,-2,-2,1
68647399721,-10,-2,-1,-1,-4,-1,-3,0
68647408548,2,6,2,0,0,-1,-2,-3
68647408548,-5,-7,-2,0,1,2,0,1
68647414575,3,2,0,-1,-3,-5,-4,-5
68647414575,-7,-2,0,-1,-3,-2,-3,0
68647429497,-4,-3,-4,1,0,2,2,-1
68647429497,0,-2,1,1,0,0,1,-1
68647437138,3,2,-3,-2,-6,-3,-3,-4
68647437138,-19,-2,-1,-2,7,-1,-1,0
68647452233,20,-2,1,-1,-2,-1,-7,5
68647452233,-13,0,-3,-3,-3,0,4,-4
68647459753,11,1,-2,-1,1,-1,0,-5
68647459753,-11,-3,0,-2,-2,2,2,5
68647468595,0,0,1,2,0,2,4,-9
68647468595,8,0,-2,-3,-4,-6,-12,16
68647474776,0,0,2,0,0,4,9,-1
68647474776,1,-4,-3,-4,-6,-5,-4,1
68647489743,-3,-3,0,3,4,4,3,3
68647489743,-1,-2,-3,-3,-4,-1,-3,-5
68647497176,-4,-2,-2,-3,-4,-4,-8,1
68647497176,5,-1,0,1,-1,-2,5,-1
68647511962,-4,-1,-2,-3,0,0,-2,1
68647511962,-4,-1,0,-1,1,1,1,-6
68647519475,-8,-1,0,-2,1,-2,-6,-1
68647519475,8,1,-2,-3,-3,-2,0,-5
68647528543,0,-3,-6,-4,-4,-4,0,-2
68647528543,12,5,8,0,-3,-2,-2,4
68647534746,-7,-3,-6,-3,-6,-1,-2,-6
68647534746,2,-3,0,4,9,8,1,4
68647549694,-3,-2,-5,-4,-3,-5,0,1
68647549694,0,-2,-2,-2,2,3,-2,-4
68647557211,1,-2,2,3,0,-1,1,1
68647557211,1,3,1,-1,-2,-1,-2,-1
68647572047,-1,1,2,-6,-11,-8,-7,-1
68647572047,-5,-1,2,6,18,4,4,-5
68647579566,0,-3,-5,2,-20,-7,-3,-3
68647579566,-1,2,-8,-21,7,-2,0,0
68647588539,-7,-7,5,-3,-11,-2,-4,-5
68647588539,-2,2,-16,7,8,3,2,-2
68647594743,-1,-2,2,0,4,1,0,2
68647594743,1,-1,-7,-2,-14,-4,-4,-2
68647609700,-2,2,0,-5,-6,-4,-2,-1
68647609700,-3,-2,3,-3,-2,-3,-1,-1
68647617041,2,-1,-2,-3,-3,1,1,1
68647617041,-2,0,1,5,5,2,1,0
68647632081,-2,0,2,2,9,4,1,0
68647632081,-1,-1,-1,-1,-6,-2,0,-2
68647639863,0,1,-2,-2,6,-1,-2,-2
68647639863,0,0,6,3,-6,-4,-3,-3
68647648532,-1,1,4,7,9,5,0,-1
68647648532,-3,-3,-13,-5,-3,0,-1,-1
68647662903,-1,0,0,-5,-1,3,2,-1
68647662903,1,-4,-2,0,-1,-1,-3,-1
68647669736,2,3,5,-1,-6,-2,-3,-2
68647669736,-2,-2,-1,-3,-1,1,1,-2
68647677073,-1,0,2,-4,-1,-7,-5,-3
68647677073,-1,-4,-3,3,-1,4,3,1
68647692183,-4,-1,0,1,-6,-3,-3,-7
68647692183,-3,-3,7,17,28,9,3,-2
68647699697,1,0,1,-2,-3,-6,-10,0
68647699697,1,-1,0,2,1,7,13,-2
68647708560,3,0,-12,-14,-2,-1,2,12
68647708560,0,1,13,1,-16,-13,-9,-6
68647722901,-5,-4,11,0,1,7,10,-2
68647722901,1,3,3,1,-3,-5,0,5
68647729688,3,1,-25,3,12,11,-7,13
68647729688,-2,-1,16,-15,-12,1,32,6
68647737075,4,-1,2,4,4,-1,-3,0
68647737075,-3,-2,5,-4,-10,-2,0,-3
68647752175,-4,-5,-9,-1,-1,-6,-4,-9
68647752175,-4,-2,-18,-6,6,-4,-15,-5
68647759553,-3,-1,10,26,18,5,-5,-12
68647759553,-4,-6,6,6,-15,-8,-6,-5
68647768538,3,1,0,-5,24,0,1,0
68647768538,0,-5,-4,-11,-23,-1,-4,-1
68647782752,0,4,-11,-13,0,2,6,1
68647782752,-1,-5,-1,24,-3,-2,-8,0
68647789765,-4,-8,1,-14,-3,-3,0,-7
68647789765,-3,3,7,-3,-16,-8,-9,-7
68647797200,2,-8,-7,-15,6,1,0,4
68647797200,-4,9,17,15,5,-1,-4,-7
68647812030,0,0,6,-3,-20,-3,7,3
68647812030,0,-3,10,-20,-32,-11,-10,-1
68647819534,1,2,-39,32,40,10,1,2
68647819534,-1,7,8,-30,-16,0,-1,0
68647828567,-9,-15,-11,23,20,-3,-2,-10
68647828567,-8,1,5,-7,-5,-7,-7,-8
68647842743,9,7,6,0,-4,2,5,12
68647842743,-1,-7,-13,-21,-22,-4,-4,-5
68647849603,5,7,22,16,36,16,14,15
68647849603,-1,-7,-22,-7,19,-3,-5,-2
68647857114,-5,-6,1,24,-3,-4,-4,-8
68647857114,-6,2,7,13,12,-2,-6,-10
68647872108,2,3,-11,-35,-35,-13,-3,1
68647872108,-2,-4,-10,12,17,-1,-14,-4
68647879682,-1,-2,5,-36,-20,-4,3,-1
68647879682,-1,-4,-3,19,15,6,-1,1
68647894638,-9,4,3,-7,-26,-12,-7,-13
68647894638,12,11,7,2,-10,8,23,21
68647902774,-5,-13,-21,-6,-15,-17,-21,-4
68647902774,7,2,10,18,31,19,10,10
68647909757,-3,-3,-1,-6,-10,-10,-16,-7
68647909757,-2,0,-3,-7,-25,-14,-2,-14
68647917178,-5,-1,6,-28,-17,-12,-6,-3
68647917178,7,1,-16,-20,23,22,16,18
68647932246,1,0,4,27,2,-1,7,-8
68647932246,-6,-10,-5,-24,-25,8,-18,8
68647939757,-1,1,4,9,1,-5,-20,-6
68647939757,-6,-4,-3,2,-11,-7,-27,-4
68647948651,2,2,-2,1,11,15,33,-3
68647948651,-2,-1,-4,-26,-5,-11,-29,5
68647962832,-2,1,6,7,2,5,7,-2
68647962832,-6,-6,-22,0,15,-8,-2,-5
68647969726,-1,-3,8,10,12,-2,-7,-2
68647969726,2,0,2,-11,1,7,8,-4
68647977177,-2,0,10,48,32,5,5,1
68647977177,0,0,-7,-3,22,-5,5,0
68647992196,-3,-4,-2,2,-7,-3,-13,-2
68647992196,-2,0,4,7,-7,-1,5,-4
68647999624,2,2,2,-41,-19,0,5,4
68647999624,-2,-6,-6,-4,-18,-7,0,-6
68648014763,-1,-1,1,-3,5,1,-5,3
68648014763,1,-1,1,28,26,5,7,1
68648022828,-1,-3,-4,-14,-29,-4,6,-4
68648022828,0,1,4,2,9,-3,-3,-1
68648037884,1,0,-11,-11,17,11,0,5
68648037884,2,0,1,27,33,4,7,0
68648038493,-2,-1,-11,-6,-19,-5,-2,-2
68648038493,-2,-2,5,0,-30,-5,-1,-1
68648052162,2,0,10,9,-8,-1,-3,3
68648052162,-2,-3,-11,-11,4,-4,0,-5
68648059749,-2,-1,4,6,-4,0,1,1
68648059749,-2,-2,2,-12,-5,-2,-1,-1
68648083330,-1,0,-11,-16,-6,-5,-4,0
68648083330,-1,-1,0,15,2,0,1,-3
68648084184,0,0,-1,9,29,11,4,1
68648084184,0,-1,-1,-7,-19,-6,0,-2
68648097840,-3,-1,-3,5,2,-2,-4,-2
68648097840,0,-2,-6,-7,-3,1,1,0
68648098697,0,1,5,0,2,-3,-3,-2
68648098697,1,-1,-4,-12,-8,-2,1,-2
68648112233,-1,-1,-6,6,3,3,-1,-1
68648112233,-3,-1,7,7,3,3,1,-2
68648119755,-1,0,-2,-12,-22,-6,-2,-3
68648119755,0,-1,-4,-10,1,0,-2,0
68648134608,-2,-1,2,-9,-33,-10,-2,0
68648134608,0,-1,2,11,22,7,5,1
68648142788,1,1,-8,0,12,2,-2,-2
68648142788,0,1,-2,-6,-3,-2,-2,-1
68648157772,-1,0,2,-4,-16,-3,-1,-2
68648157772,-3,-2,-5,-2,2,-1,-1,0
68648158497,0,0,-1,-7,-5,-2,2,3
68648158497,1,-1,6,8,5,-1,-2,-2
68648172114,-1,-2,-1,2,7,1,0,2
68648172114,0,0,1,-5,-7,-4,-1,-1
68648179714,1,0,0,-9,-4,2,3,-1
68648179714,-4,-2,-9,-5,-8,-7,-6,-3
68648194706,1,-1,5,-1,3,4,0,-1
68648194706,0,-1,-2,5,-4,0,-3,0
68648202774,-1,-1,4,-1,-7,1,6,1
68648202774,-2,-2,-3,-10,-3,-2,-2,-2
68648217869,-2,0,-2,-1,2,0,-2,-2
68648217869,-1,-4,-4,-9,-17,-7,-2,-1
68648218610,-2,-2,-4,-6,6,3,-3,-2
68648218610,2,2,4,14,9,0,3,0
68648232198,-3,-1,-2,-6,-6,-4,-4,-2
68648232198,-1,-1,0,-2,1,2,-1,-1
68648239625,-1,-2,2,1,-7,-6,-4,-4
68648239625,-1,0,-2,-3,1,0,2,2
68648254606,-1,-1,0,-1,-1,-2,-5,-1
68648254606,1,0,-4,2,-7,-4,0,-1
68648262872,0,-1,6,7,8,1,-1,-1
68648262872,-1,-3,-8,-4,-4,0,2,0
68648277713,0,0,3,-3,-1,-1,-2,-2
68648277713,-4,-1,1,9,-1,-3,-1,-2
68648278504,-2,0,-4,-9,-4,-5,-4,0
68648278504,0,-2,-2,0,-7,0,-1,0
68648292024,-2,-1,-1,13,19,-2,-2,-1
68648292024,-1,1,-5,-11,-8,-4,-2,-1
68648299713,2,1,12,12,8,3,1,2
68648299713,-2,-4,-5,-2,-6,-7,-4,-2
68648314549,-1,-1,-10,-13,-6,2,2,-1
68648314549,2,0,8,16,14,3,-1,4
68648322883,-1,-3,-4,-6,-7,4,2,1
68648322883,-2,-1,0,0,3,-4,-4,-2
68648337930,2,-1,0,1,2,5,5,0
68648337930,-1,-2,-3,-14,-7,-6,-4,-2
68648338552,0,-3,-6,0,-6,0,-2,-1
68648338552,-1,0,4,5,2,-1,-5,-1
68648352102,-3,-2,-1,-1,-2,0,2,2
68648352102,-1,-1,2,-4,-4,1,1,-1
68648359630,-3,-2,-4,-7,-15,-6,-1,-2
68648359630,-2,-1,-2,-5,-6,-5,-3,-3
68648374714,0,-2,1,4,-6,-5,-1,1
68648374714,2,0,0,-4,8,6,3,-1
68648382750,-2,-1,-5,-3,-17,-4,-1,-1
68648382750,-2,-2,1,5,23,4,2,-2
68648405992,-2,-1,2,-2,-1,0,-1,0
68648405992,-2,-1,-7,-7,-1,-1,-2,0
68648406672,-3,-2,-2,5,8,-4,-4,-3
68648406672,0,0,2,9,11,7,3,1
68648412201,-1,-1,-4,-6,-6,-6,-3,-3
68648412201,0,-1,0,-3,-3,0,1,1
68648419710,-1,1,-1,-6,1,1,-1,-2
68648419710,-1,-3,-3,-4,-8,-1,1,0
