timestamp,emg1,emg2,emg3,emg4,emg5,emg6,emg7,emg8
113883026775,-1,0,-2,0,4,0,2,-2
113883026775,0,-2,0,-1,0,1,0,-2
113883032610,0,0,-1,0,-3,0,0,1
113883032610,-1,0,-1,-2,-4,-1,-1,-1
113883033252,-1,-6,-2,-3,5,0,-1,0
113883033252,-2,5,0,-3,-3,-4,-5,-3
113883039432,-1,9,3,-2,-4,-4,-1,0
113883039432,0,-11,-5,1,3,1,2,-2
113883043101,-1,-14,-5,-1,-2,1,-1,-1
113883043101,0,1,-2,0,1,0,-2,0
113883045167,-1,-11,1,1,1,3,-1,-3
113883045167,-4,8,4,-2,-4,-3,0,0
113883092643,-1,4,2,1,-1,-3,0,0
113883092643,-1,-6,-1,-1,-2,-3,-3,-2
113883093474,-1,0,-2,-2,-5,-2,-2,-2
113883093474,1,4,1,1,0,-2,-6,-2
113883095034,-1,-1,0,-1,2,2,-1,1
113883095034,-1,1,-1,-1,-3,0,0,0
113883099356,-2,-1,-3,-1,-1,-1,0,-1
113883099356,-1,-7,-3,-2,0,1,3,1
113883101713,3,2,-1,-2,-6,-2,-1,0
113883101713,-1,-5,-1,-1,6,-1,2,-1
113883122878,-2,-2,-2,-2,0,-3,-2,-3
113883122878,1,4,1,1,0,0,-3,-2
113883126491,1,7,-1,2,-1,-1,-3,-2
113883126491,3,1,-3,-1,-1,2,5,4
113883127871,-1,-15,-2,-1,1,-1,-1,-3
113883127871,-5,-8,-4,-2,-2,-5,-3,-3
113883139615,-2,1,0,-2,-2,-4,-1,-3
113883139615,-3,-9,-2,0,-6,0,-2,-2
113883152110,1,8,-2,0,2,-1,1,1
113883152110,0,0,2,-1,-3,-2,-4,-2
113883157786,-2,-1,2,0,2,0,0,-1
113883157786,-4,5,-1,-2,-7,-4,-3,-2
113883204497,-2,-2,0,-1,0,-1,-4,-2
113883204497,0,-1,0,0,-1,-1,-2,1
113883205082,-1,-5,0,-3,0,2,1,1
113883205082,-1,1,0,0,-1,-1,-2,0
113883205929,0,-1,-2,-3,-2,-3,0,-1
113883205929,-2,5,-1,0,-2,-3,-4,-4
113883206907,2,4,-1,-1,1,1,0,1
113883206907,-1,6,2,0,0,1,0,0
113883235107,-2,-20,-4,-2,-1,0,-2,-1
113883235107,0,-8,-4,-3,-1,0,-3,-3
113883235758,-1,-1,2,0,-3,-3,-1,-4
113883235758,-1,-2,-1,-2,-5,-4,-3,-1
113883239857,-1,9,2,0,3,1,-1,-1
113883239857,-2,-1,-2,0,-2,-1,1,-1
113883264296,-2,0,-2,-2,-1,0,-1,0
113883264296,-2,-4,-1,1,2,2,-1,-3
113883265906,-2,1,1,0,0,1,-1,1
113883265906,1,-1,1,-2,-1,1,-1,2
113883266743,-2,4,1,-1,-1,-2,-1,-1
113883266743,1,-4,-4,-3,-3,-2,-2,-2
113883295784,0,2,-1,0,-2,-3,1,-2
113883295784,-2,10,3,1,2,-3,2,0
113883296557,0,-7,-6,-2,-1,-1,0,0
113883296557,-1,-4,-2,-2,3,3,1,-1
113883301278,1,-2,-3,-3,-2,0,-1,-3
113883301278,1,0,2,-4,-8,-5,0,-1
113883307301,-2,12,4,-1,-1,-3,-4,-1
113883307301,-4,-20,-8,0,10,3,-3,-2
113883316330,0,7,-1,-2,-3,0,1,0
113883316330,-2,-1,-1,1,1,-1,-3,-3
113883322428,-1,-1,0,-1,-7,-5,-4,-3
113883322428,0,8,3,-2,-6,-4,-2,-3
113883346933,-1,-3,-2,0,0,2,0,-1
113883346933,0,-2,-1,-2,0,0,0,1
113883347850,1,-1,0,2,1,0,0,-2
113883347850,-1,1,-4,-2,0,-2,1,0
113883369519,-1,-3,1,0,-3,-3,0,-2
113883369519,-2,-6,-7,-3,-1,-2,-3,-3
113883370329,0,-7,0,1,-2,-3,-3,-2
113883370329,1,2,-10,0,1,2,3,2
113883376396,1,5,3,-3,-3,-4,-4,-1
113883376396,1,-6,10,2,2,3,4,3
113883399420,-4,-7,-5,-3,-1,-2,-5,-4
113883399420,-4,-11,6,-1,-4,-5,-2,-2
113883415778,1,4,-3,0,1,0,1,1
113883415778,1,2,-4,-1,-6,0,-2,-1
113883416769,-2,-5,-5,-3,5,-2,-1,-2
113883416769,1,6,-1,2,-2,-2,0,0
113883428080,1,-3,-5,-3,7,1,-3,0
113883428080,-2,-8,-3,-3,-11,-5,-3,-2
113883428769,0,1,2,6,1,4,2,4
113883428769,-1,0,0,-3,5,1,-1,-1
113883436374,1,2,9,2,-2,0,1,0
113883436374,0,0,-6,-3,-3,-1,-2,-2
113883458909,0,3,0,-4,-5,-1,-3,-3
113883458909,-1,6,1,0,-6,-3,0,-3
113883466990,-2,-11,-1,-1,0,0,-4,-1
113883466990,-2,4,-1,-2,3,3,0,2
113883467917,-3,-3,12,1,-6,0,-1,-1
113883467917,1,1,5,1,3,-1,-4,-3
113883489326,-1,1,-5,1,-10,-5,0,-3
113883489326,-2,-7,-8,3,12,0,0,-2
113883490507,1,6,-1,-3,1,1,-2,-1
113883490507,0,-4,2,-1,-8,-1,-3,-2
113883512636,0,-2,-10,-5,-3,-2,-4,-1
113883512636,-2,4,2,-3,-6,-4,-1,-3
113883513518,1,2,-5,1,2,0,2,-1
113883513518,-2,-3,3,-3,-3,-4,-2,-1
113883517496,0,4,1,3,4,8,6,2
113883517496,2,4,-2,-2,2,0,-3,-1
113883541314,-1,-5,-10,-3,-7,-3,-2,-5
113883541314,0,1,-3,-4,-2,-2,0,4
113883542714,-2,1,0,0,-3,-4,-2,-1
113883542714,0,-1,5,2,1,-1,-1,-3
113883595183,0,-4,-2,-1,-2,-2,-1,-2
113883595183,-2,-3,-3,2,-4,-2,-2,-1
113883596598,-4,-1,1,-3,0,-1,-3,-2
113883596598,0,1,-2,-1,-3,1,2,3
113883597588,1,3,-4,-2,1,-3,-6,-1
113883597588,1,-3,4,-1,4,5,2,-2
113883601967,-3,-2,1,0,-1,-2,-2,-6
113883601967,-3,-3,-1,0,-3,-3,0,1
113883602732,-2,-4,-5,-4,-5,2,-2,-1
113883602732,2,5,3,0,2,-2,1,5
113883625136,0,11,5,0,-2,-5,-1,-1
113883625136,-3,-17,-6,-2,-7,-3,-1,-5
113883626545,1,2,-6,-3,0,-1,2,0
113883626545,-1,-10,0,2,5,6,-2,2
113883646991,1,1,2,1,0,2,1,2
113883646991,-1,1,2,-3,-1,-2,-3,-6
113883648468,-1,-2,-1,1,-2,-1,-1,-2
113883648468,1,0,-3,-3,-3,-3,0,5
113883649364,-1,8,3,0,0,0,-2,-1
113883649364,-2,-6,1,1,3,-2,-1,-1
113883653829,-3,-4,-7,-2,-3,-4,-5,-5
113883653829,-3,-1,1,1,1,-1,-1,-13
113883677011,-4,-6,-1,-3,2,2,-3,-7
113883677011,-4,4,-5,-3,0,-3,-2,6
113883691739,4,0,3,1,0,4,1,12
113883691739,0,1,2,0,-4,-6,-12,1
113883692332,3,1,-5,-1,0,1,15,5
113883692332,-2,3,-9,-3,-2,1,-6,-8
113883706917,-4,-7,5,-1,-2,-3,-2,-6
113883706917,0,2,-1,-1,4,-1,-4,-2
113883707751,-2,-2,3,-4,3,-1,-5,-3
113883707751,-1,0,1,-3,-2,5,2,0
113883713791,-1,-2,-3,0,-8,-7,-3,-2
113883713791,-2,-3,-1,-1,-5,-3,2,0
113883760185,-1,-1,0,2,7,-3,-7,-1
113883760185,0,-3,-3,-4,-6,-4,1,-4
113883761608,0,2,4,2,4,1,3,-1
113883761608,-1,3,2,2,-2,2,2,-3
113883762623,-2,-9,-6,-4,-2,-1,-3,1
113883762623,0,7,2,-2,-1,-2,-4,1
113883766991,-1,-2,-3,-3,-7,-6,-11,-6
113883766991,-2,-3,-3,-2,-2,-4,-7,-3
113883767841,0,-5,-1,1,0,2,-1,2
113883767841,3,3,0,5,9,7,-1,3
113883790145,-2,1,-2,-8,-5,-2,3,0
113883790145,-2,-9,-1,1,0,-5,3,0
113883790978,-3,-4,1,-2,-11,-5,10,-1
113883790978,3,0,-10,1,-3,-3,1,0
113883813177,-4,-7,0,0,16,5,-1,-11
113883813177,2,1,0,-1,-3,2,-3,3
113883814099,-1,-2,0,-3,8,3,2,0
113883814099,-4,0,6,-1,-8,-3,-4,-8
113883817364,4,6,3,5,-6,-1,1,11
113883817364,-2,0,-5,-6,-1,2,-1,-3
113883842380,1,-8,-5,0,-8,-3,-2,0
113883842380,0,3,-2,-7,-14,-7,-2,-4
113883848509,-3,1,0,-11,14,1,2,-8
113883848509,0,-2,-1,0,-7,-7,-1,-1
113883856818,1,1,1,6,4,0,-3,3
113883856818,-3,-2,0,2,1,7,0,-4
113883858396,0,-1,2,1,-3,-3,-14,5
113883858396,-1,-3,-3,-5,-1,-8,-12,-7
113883871161,1,4,-1,1,-2,6,19,-10
113883871161,-2,-8,-1,4,9,-1,2,14
113883877503,1,0,0,2,-1,7,14,16
113883877503,0,3,2,3,4,5,-2,2
113883901600,-2,-4,-3,1,-22,-16,-14,-6
113883901600,-3,0,-2,-14,5,-11,-8,-20
113883924485,-1,5,-4,-9,5,-2,2,-2
113883924485,3,-3,-1,1,-10,0,4,7
113883925138,2,13,13,-7,9,-2,-10,-5
113883925138,-5,-26,-28,0,-19,-3,2,5
113883926731,-1,-1,3,11,11,1,0,-3
113883926731,-1,12,7,-2,14,-1,3,-8
113883930648,-5,-15,-17,-5,2,9,3,4
113883930648,-1,0,-16,-16,14,6,-9,-3
113883953865,-4,-5,2,6,-29,-14,-32,-23
113883953865,1,-3,-6,2,-24,-2,32,21
113883954534,-3,-11,-4,-11,-37,-14,-18,11
113883954534,-3,-3,2,-4,-29,-17,-14,-1
113883959888,-3,0,-7,-11,62,8,-20,-27
113883959888,-8,0,7,18,17,11,-17,-11
113883976201,6,11,10,14,34,16,13,22
113883976201,5,2,4,20,-12,29,22,27
113883977718,3,0,3,-7,-2,9,6,10
113883977718,5,12,24,-9,5,-5,-1,-9
113883990521,-8,-13,-30,3,-18,-31,-33,-31
113883990521,-10,-10,-17,-12,-48,-32,-5,3
113884005616,0,-6,-8,-28,-37,-9,8,21
113884005616,-4,-9,-14,-3,26,24,-10,-6
113884006304,-13,10,30,9,21,-2,-26,-53
113884006304,-2,-11,-50,9,-13,-15,6,12
113884028157,18,-10,-43,-3,-19,4,13,53
113884028157,0,-17,-10,-16,11,18,12,10
113884028765,2,0,10,6,22,23,-3,-8
113884028765,-1,28,58,18,63,-6,-37,-45
113884036275,-8,11,29,44,5,-2,52,2
113884036275,-4,-22,-48,-35,-90,-29,-26,0
113884066925,1,4,0,-16,-1,4,4,-3
113884066925,2,29,51,29,47,8,-88,-44
113884068447,17,-1,-17,11,9,14,91,92
113884068447,5,-1,-12,-28,-10,-3,-16,34
113884069462,-3,-13,-17,-16,-42,-8,8,20
113884069462,5,-12,-14,-25,-10,7,0,12
113884079781,-6,14,35,20,11,-13,-53,-50
113884079781,-5,11,21,30,19,-2,25,-18
113884087379,0,-2,-7,-9,-9,-4,3,15
113884087379,0,3,9,10,14,5,28,-3
113884096311,-6,-1,9,5,30,6,-23,-30
113884096311,-2,-2,25,5,11,1,-1,2
113884119223,5,21,47,10,6,0,-2,-3
113884119223,0,-3,-1,-20,-4,3,29,7
113884120733,-10,-12,-21,-11,-35,-9,15,-14
113884120733,-2,-16,-23,-27,-8,-2,3,-10
113884133076,2,0,3,18,16,3,5,5
113884133076,3,8,53,5,-11,-1,11,2
113884139715,-3,-1,34,-23,-27,-12,-31,-11
113884139715,3,26,-32,22,18,7,-6,-2
113884147459,2,-5,-62,-5,-12,-5,6,5
113884147459,0,6,-68,-1,4,10,24,22
113884156232,-9,-22,-37,-14,-7,-12,-30,-27
113884156232,0,-10,26,7,14,1,1,-5
113884170389,1,-5,-17,-6,0,-2,0,3
113884170389,4,-7,-14,-7,-5,5,-1,9
113884177228,-4,-1,1,5,-1,-4,-13,-14
113884177228,1,9,6,-2,-18,-11,-1,-4
113884201272,0,2,-2,-2,14,-3,5,4
113884201272,-2,-12,5,0,-9,6,16,0
113884202749,-4,5,7,-6,8,2,5,-8
113884202749,-1,2,1,5,-5,-5,11,6
113884216258,-1,-1,13,-2,-12,-6,1,-9
113884216258,-1,-2,13,0,13,-5,3,-3
113884223815,0,3,0,-8,-9,1,6,-3
113884223815,-3,5,6,5,4,-1,-4,-13
113884230695,-6,-10,6,-3,-6,-1,3,1
113884230695,0,1,-3,-5,-4,-3,5,1
113884237456,1,2,-5,-2,-3,2,-5,-2
113884237456,-1,-10,-4,3,-1,-5,-7,-6
113884253182,-2,1,4,0,9,5,1,3
113884253182,-2,-4,-4,-3,-7,-2,-3,-2
113884259866,0,1,-3,-5,-6,-1,-10,-5
113884259866,-1,4,7,1,-7,1,-4,-4
113884283798,-2,-3,-1,-2,1,2,1,0
113884283798,-2,0,-2,-2,-4,-6,-6,-4
113884285262,-1,3,0,-2,-5,-2,-6,-1
113884285262,-3,-8,-1,3,-10,-3,-4,-2
113884289903,-3,-5,-13,-6,8,2,-5,-2
113884289903,-2,-2,-6,-2,-16,-8,-7,-7
113884298855,0,2,-23,6,25,8,-3,4
113884298855,2,5,-26,-3,2,2,-3,1
113884313060,-1,-1,-12,-2,-8,-2,-6,1
113884313060,0,-1,-5,-1,-1,-4,-4,0
113884319996,-1,-4,9,0,-3,-4,-4,-5
113884319996,-1,-2,15,-2,3,-2,-2,-1
113884336316,-1,3,15,-2,-1,0,2,4
113884336316,-2,-2,14,-6,-5,2,1,-1
113884337757,-1,-4,7,5,5,0,1,1
113884337757,0,2,10,0,9,-2,-1,-1
113884349891,1,-1,-2,-3,-8,-2,1,0
113884349891,-1,-7,-9,-3,0,-1,3,2
113884364841,-3,0,3,-3,-9,-3,-2,-1
113884364841,-3,-1,-1,-1,-3,-2,-1,-1
113884372998,0,-1,5,-2,-11,-4,-1,1
113884372998,2,0,6,1,23,6,6,5
113884396804,-3,-1,9,-2,0,5,6,2
113884396804,0,-2,8,-2,-1,-3,4,-3
113884397793,-1,0,7,2,-3,-1,-6,0
113884397793,0,4,2,2,-1,0,-21,-1
113884399262,-1,0,-4,-3,-5,-4,-39,0
113884399262,-4,-7,-4,-1,-1,-2,-52,0
113884409990,0,-2,-4,-3,-2,-1,-43,-2
113884409990,-1,3,-3,-1,-2,-2,-23,0
113884418824,1,5,-5,-1,-6,-4,2,1
113884418824,-1,-2,2,0,0,-3,18,-4
113884433021,-1,-14,-4,1,10,1,23,0
113884433021,-4,-1,-11,0,5,4,29,2
113884447287,1,6,-2,-4,-7,0,24,-3
113884447287,1,2,-4,0,1,0,21,-2
113884456831,-1,1,2,-1,-4,-4,14,-6
113884456831,-1,-1,3,-2,-13,-6,7,-4
113884458392,0,-5,-5,4,14,3,8,-1
113884458392,-1,0,-3,-1,8,4,7,0
113884478636,0,1,-1,3,2,1,3,-2
113884478636,0,3,-4,-5,-13,-4,3,-3
113884480300,0,-1,0,-4,-3,-5,-2,-3
113884480300,0,-4,-1,0,0,1,3,2
113884508777,-2,-4,-4,1,11,3,1,1
113884508777,-2,-2,-1,0,-3,-1,-7,-5
113884510297,0,-1,1,-3,-8,-4,-5,-2
113884510297,-1,0,2,1,3,1,3,1
113884523652,-1,8,2,-2,-16,-3,-1,-1
113884523652,-2,-15,-5,-5,13,3,-1,-3
113884525442,0,-7,-5,-1,-1,1,-5,-3
113884525442,-3,1,-1,-3,-4,-2,-2,-2
113884529844,0,1,-1,0,-2,-3,-3,0
113884529844,0,6,3,2,-2,-5,-4,0
113884538799,0,-5,-1,-1,-3,2,-1,1
113884538799,-1,-3,-3,2,0,-3,-3,-2
