timestamp,emg1,emg2,emg3,emg4,emg5,emg6,emg7,emg8
113909871105,-2,-5,-6,0,-3,-2,-3,-2
113909871105,-1,4,-2,-4,-1,-1,-2,-2
113909871963,-1,-7,-2,-2,3,-1,-1,-3
113909871963,0,-1,-4,-2,0,-3,-2,-2
113909873293,-2,0,1,4,2,-1,1,2
113909873293,0,4,-1,2,-3,0,2,1
113909874090,-1,6,-1,-1,-3,0,-1,0
113909874090,-1,-8,-1,-4,-4,-1,0,-1
113909881968,1,2,1,-2,-2,-2,-2,-1
113909881968,-2,-8,-3,0,-1,-1,-2,-2
113909896213,-2,0,-3,0,0,-1,-2,1
113909896213,0,-1,-2,0,1,0,-1,0
113909898022,-1,5,2,-1,-3,-3,1,-2
113909898022,0,2,1,-1,-1,-1,2,-1
113909911348,-1,-2,0,-3,-3,0,-3,-4
113909911348,-1,1,0,-2,1,2,1,-2
113909927735,1,1,-3,-3,0,1,1,-1
113909927735,0,-3,0,2,2,-1,-2,-3
113909929906,0,2,0,0,-2,-2,-3,-1
113909929906,-1,-6,-2,2,-1,-1,-5,1
113909940968,-2,-1,0,0,-4,-2,-4,-1
113909940968,0,-2,-1,-3,-1,-1,-1,0
113909955894,-3,0,-1,-4,0,-1,1,0
113909955894,1,5,0,-2,-1,-2,-1,0
113909956544,0,3,-1,1,-1,0,0,-1
113909956544,-1,-10,1,2,-2,1,-1,0
113910009912,-1,-5,-2,-2,-2,-1,-1,-3
113910009912,1,5,0,-1,-1,-1,0,-4
113910010682,-1,5,1,-3,-2,-3,-2,-3
113910010682,-1,3,-3,2,-1,-2,0,0
113910011468,-3,-5,0,0,-1,2,1,-1
113910011468,0,0,-2,1,6,4,3,0
113910015378,-2,-4,-3,2,-1,1,1,-1
113910015378,0,6,2,-7,-3,-2,-2,-4
113910016124,-1,-7,-3,0,-5,-5,-5,-4
113910016124,-1,-4,-4,-1,-1,0,2,0
113910023742,0,5,-1,1,1,1,2,0
113910023742,-3,-11,-1,1,-2,-1,1,-4
113910029717,0,3,-2,-10,-2,-3,-1,0
113910029717,-1,-3,2,1,-3,-2,-4,-4
113910044738,1,-8,-2,-1,-1,-2,-2,-1
113910044738,0,4,-2,-1,-1,-1,-3,-3
113910068584,0,3,0,1,-2,0,0,-1
113910068584,-1,1,-2,-2,-3,-1,0,1
113910070153,-3,-6,1,-2,-5,-2,-3,-3
113910070153,0,0,-1,0,2,-2,-1,-1
113910074782,0,-1,-1,5,4,6,6,3
113910074782,1,4,-2,-15,-1,2,2,4
113910091960,0,-2,1,-1,-2,-1,-1,1
113910091960,-2,4,1,4,-4,-4,-3,-2
113910092656,1,-3,-1,5,-2,-6,-6,-2
113910092656,11,1,-5,3,-4,-3,-2,-1
113910106274,-12,7,0,-2,1,3,1,0
113910106274,-5,-19,-5,-9,-1,3,-1,-4
113910120438,-3,5,1,3,1,2,2,5
113910120438,3,4,-2,-1,-1,1,1,0
113910127516,6,-1,-4,-6,-6,-5,-6,-4
113910127516,-3,1,1,5,6,-1,-1,-1
113910144270,-1,-4,0,-1,-4,-2,-1,-4
113910144270,-6,0,2,1,-4,-3,-4,-3
113910145916,0,0,0,-1,3,-1,-2,0
113910145916,1,0,1,-4,-5,1,-2,-2
113910149953,3,5,-2,-4,-1,-2,-4,-3
113910149953,-4,-8,1,3,-3,-3,-2,-1
113910172864,-3,-3,-12,1,2,2,1,-2
113910172864,4,3,0,-11,-1,0,1,3
113910173909,-3,-5,-3,3,0,-2,-5,-1
113910173909,-6,-9,-1,4,-1,-2,-3,-1
113910204355,0,1,2,0,-2,-1,0,1
113910204355,0,0,-5,1,-1,0,1,2
113910205085,0,14,0,-8,-3,0,0,-2
113910205085,-4,-16,-5,2,-5,-5,-7,-3
113910206751,1,-3,-2,3,-4,0,-4,-2
113910206751,0,-3,-4,8,10,0,-2,1
113910209891,-2,2,2,-4,0,-1,0,0
113910209891,15,6,2,1,-2,-3,-3,-5
113910233142,-21,5,2,-5,-2,-3,-3,-2
113910233142,-1,-1,2,-2,-5,-1,-3,2
113910233844,-6,-7,-6,5,2,3,2,1
113910233844,-1,8,0,-6,0,1,-4,2
113910255638,5,-3,1,-2,-3,-3,-1,-4
113910255638,-2,-15,-7,-2,-4,-1,2,0
113910256264,0,-7,-1,-1,2,1,2,0
113910256264,-3,3,3,0,-5,-1,0,-4
113910263784,2,-5,0,8,9,1,2,-1
113910263784,-2,10,-2,1,-2,-6,-2,-3
113910269866,2,3,0,-7,-6,-3,-2,-1
113910269866,-6,-9,-3,-2,3,4,3,2
113910286263,1,1,3,-3,-6,-1,0,-1
113910286263,2,-4,-1,4,-1,1,3,0
113910292322,1,1,-2,1,2,-1,0,0
113910292322,-4,3,-1,-10,-3,-4,0,-5
113910316979,4,-6,-1,0,-1,0,0,6
113910316979,0,-2,-2,1,-4,0,-3,-2
113910317757,1,0,0,-3,-3,-3,-1,-3
113910317757,-2,5,0,2,3,0,2,0
113910323835,2,0,2,5,0,-1,-1,-2
113910323835,-2,-4,-3,-9,0,3,0,4
113910330008,-2,-8,-1,-2,-2,1,1,-4
113910330008,-1,-3,-4,3,0,-1,-4,0
113910344972,2,3,0,-2,-2,0,-1,1
113910344972,1,1,0,3,0,1,4,1
113910352347,-2,-1,-2,-4,-1,-3,0,-2
113910352347,4,0,1,-3,0,0,1,5
113910375673,6,-2,-4,-5,-3,-3,-2,0
113910375673,-1,-2,1,0,-3,-6,-9,-6
113910376279,-3,-3,-5,8,0,-2,-2,-2
113910376279,-3,1,8,-7,-3,-3,6,-6
113910383798,-3,2,-1,-14,2,0,-6,-1
113910383798,3,1,0,11,1,3,8,-2
113910398006,2,9,2,-2,0,-1,1,0
113910398006,-8,-20,-11,0,-2,-2,-6,-2
113910405019,2,-14,-4,-1,0,0,1,-3
113910405019,-2,-5,-9,-3,-1,-3,-3,-4
113910420702,1,3,-3,3,5,-2,-3,2
113910420702,1,8,10,-1,-1,0,2,3
113910427475,1,7,1,-1,-3,-1,-1,-4
113910427475,6,-1,-1,-1,-3,0,-2,9
113910434888,-1,0,3,-1,0,2,-2,-1
113910434888,3,-3,-3,1,-2,-3,-4,5
113910451212,-1,1,-3,6,2,1,6,2
113910451212,-8,4,14,-5,-4,-2,-7,-4
113910458119,-1,-6,-14,-5,-3,-1,-1,-2
113910458119,11,-4,0,3,2,-1,-3,-4
113910481794,-20,7,0,0,-6,-3,-2,-3
113910481794,-1,10,-4,-3,-1,0,4,-1
113910482771,-3,-13,6,-7,-8,1,3,5
113910482771,-1,-9,-3,1,10,3,-3,-4
113910487259,3,-4,-3,8,1,1,0,-3
113910487259,1,7,3,-11,-2,-5,-11,3
113910494975,-2,-6,-3,1,-3,0,6,-6
113910494975,-4,5,-2,-5,-4,-2,-5,-4
113910509993,3,0,3,-1,-2,-5,-4,-1
113910509993,-3,-6,-9,0,1,-1,2,-2
113910518015,2,3,0,0,-2,0,-2,-2
113910518015,-3,5,3,2,-1,-2,0,0
113910532994,-1,-11,-7,-4,2,-1,-1,0
113910532994,-4,2,-2,-8,-3,-4,-4,-21
113910533727,10,1,0,10,2,2,14,43
113910533727,-4,6,0,2,-1,2,5,-9
113910547514,-1,-5,-2,-5,-1,-2,-8,7
113910547514,0,-9,-5,-5,-1,-3,1,-9
113910563842,-3,3,2,-1,-2,-3,-12,-16
113910563842,-4,-8,-5,2,-6,-1,-1,2
113910565249,3,5,0,0,7,2,4,-5
113910565249,1,-1,1,3,4,5,1,-1
113910586968,-6,2,0,-5,-2,-3,-5,-9
113910586968,-2,1,-4,-2,-7,-5,0,-1
113910588502,-3,0,1,-7,-7,-2,-2,-4
113910588502,1,-1,3,7,1,-1,0,6
113910592375,0,-2,-2,0,10,2,4,-4
113910592375,-1,-9,-6,-1,0,-3,-9,4
113910607387,-1,-6,-8,2,-3,-1,0,-1
113910607387,-1,6,6,-2,-7,-2,0,2
113910623713,-2,-4,-1,0,-6,-3,-5,-7
113910623713,-3,1,4,-5,-1,0,2,-9
113910625278,2,3,3,1,3,0,1,14
113910625278,3,-8,-15,0,-7,2,2,9
113910638460,-2,-1,-5,2,12,5,0,-6
113910638460,-2,0,-3,-5,0,-2,-7,-2
113910646379,0,-6,-1,-1,-12,-15,5,-6
113910646379,-1,-1,-1,-1,-2,2,-11,-10
113910652464,2,1,2,-4,7,5,-5,4
113910652464,-1,3,-7,-3,-9,0,4,-2
113910667363,-2,2,5,11,0,0,-2,-3
113910667363,-1,4,6,4,19,-4,2,-1
113910674862,-4,-7,-1,1,-6,-4,-5,-10
113910674862,1,3,2,-1,6,4,-1,1
113910698772,1,0,-4,-7,-9,-1,-3,1
113910698772,-3,-8,-3,-3,-7,-2,1,0
113910699406,1,3,1,-3,-1,2,-3,9
113910699406,-1,-5,2,-1,-2,-4,1,-4
113910704887,11,5,2,1,-5,-4,-3,2
113910704887,-7,7,2,0,5,-4,0,7
113910712305,-5,-2,-2,-4,-6,-2,0,-11
113910712305,-4,-9,-4,-2,0,1,-3,5
113910728751,3,-2,-4,-4,3,0,-4,-5
113910728751,2,3,4,3,-15,-9,-7,-2
113910734781,-3,-1,-4,3,5,3,9,6
113910734781,3,12,8,-4,13,3,-7,-1
113910744498,-12,-8,-5,15,5,7,-7,-19
113910744498,2,-10,-6,-31,-8,-4,15,16
113910758206,-5,-8,0,2,-17,-13,-1,-6
113910758206,1,2,0,8,7,5,1,3
113910764791,-2,-1,-2,-5,7,8,3,3
113910764791,-2,2,-3,5,-3,4,-6,-7
113910772403,3,-3,-6,-9,-6,-4,3,-2
113910772403,0,-6,-5,-7,-6,-7,-2,-1
113910787244,14,5,-5,-8,-4,-7,-4,-6
113910787244,-28,-12,11,7,1,-1,-15,-11
113910794958,5,2,25,4,1,-4,13,8
113910794958,-1,15,-2,9,-4,0,3,2
113910818794,-7,0,3,-6,-2,1,1,1
113910818794,7,-11,-22,0,6,3,4,3
113910819438,-4,-9,-20,-12,-2,-1,-12,-10
113910819438,-8,-8,0,1,-2,-2,-1,-11
113910824907,2,7,6,0,-6,-2,1,5
113910824907,8,-4,3,-2,-14,-7,-6,0
113910832358,-2,3,3,11,19,4,-2,3
113910832358,3,-6,-10,-1,12,10,3,3
113910847475,-6,0,-4,-19,-1,-2,-3,-5
113910847475,4,10,8,7,0,2,7,-5
113910863837,-2,-11,-12,9,-6,1,-1,2
113910863837,0,-3,-6,-5,-11,-8,-1,-2
113910865316,-3,-1,6,10,-8,-2,1,-1
113910865316,-1,2,-4,-25,-1,-7,-8,-2
113910878090,-1,5,4,-12,-1,7,-9,-39
113910878090,-5,0,1,-3,5,-7,7,18
113910884799,-1,-2,-4,5,-2,-2,1,6
113910884799,4,-7,-9,7,-7,11,-11,-10
113910892422,3,6,3,-8,3,-1,14,11
113910892422,16,3,9,8,12,6,14,-4
113910907485,-31,0,-4,2,0,-13,6,-7
113910907485,2,-12,0,7,-5,-5,8,34
113910914801,-5,1,0,20,-38,-4,-15,-3
113910914801,-5,-8,-4,-29,13,1,-8,-4
113910923820,5,2,-4,-11,27,9,-5,-8
113910923820,4,0,-4,-5,-10,-9,-2,-6
113910938055,-6,-1,2,3,8,0,-3,3
113910938055,1,-1,0,16,-15,-1,5,-3
113910944904,0,5,13,-8,5,-6,-12,-18
113910944904,0,22,27,14,-36,-19,3,-4
113910952482,9,-3,-13,-24,-49,2,10,21
113910952482,-6,-16,7,57,73,21,-7,0
113910967293,-9,-14,-26,-30,16,19,-5,-8
113910967293,2,12,13,5,1,-11,-62,-30
113910974992,15,8,3,-1,-27,-18,83,51
113910974992,2,-5,-28,-49,-110,-45,-5,8
113910989941,-2,-9,-3,3,29,2,23,0
113910989941,-7,-5,-7,18,49,-3,-7,-28
113910997863,-20,18,38,21,27,-15,-34,-64
113910997863,-7,-6,-5,25,7,44,32,26
113911013059,36,5,1,0,-96,22,23,61
113911013059,-9,-15,-25,-41,69,39,5,-2
113911013716,-2,-5,1,23,52,-5,-35,-24
113911013716,-15,18,34,-3,-39,-98,-83,-69
113911027267,-6,-8,-21,2,-16,-15,-55,-24
113911027267,15,-1,-6,5,-9,65,95,96
113911034940,5,-10,-20,-20,-5,49,-37,38
113911034940,0,-10,-12,-13,8,13,-27,2
113911049898,-5,-2,9,1,-7,-50,-79,-35
113911049898,-6,32,62,16,-7,-84,-84,-51
113911058065,-4,-30,-56,6,14,34,37,12
113911058065,6,-1,-3,-22,-42,21,6,37
113911073203,-3,-3,7,6,29,9,-28,-15
113911073203,-24,-1,-1,3,-14,-75,-106,-113
113911073772,3,9,15,31,19,-29,53,-10
113911073772,-13,-16,-39,-36,20,65,85,18
113911088815,10,13,24,22,36,68,-55,-83
113911088815,9,18,23,13,9,35,127,69
113911094864,35,-9,-30,-54,-55,-48,-128,36
113911094864,-5,-22,-17,-31,-25,-50,-94,-57
113911118687,-1,-7,8,20,-5,-22,-89,-10
113911118687,-28,-21,-10,-20,-17,-14,27,-97
113911119555,-11,12,33,4,9,-20,-15,-36
113911119555,3,24,25,9,-2,6,6,6
113911133050,-12,-11,0,2,-4,-20,26,8
113911133050,9,-3,-16,23,46,24,1,7
113911133920,-10,-1,-7,-22,-28,3,45,4
113911133920,11,2,19,3,37,27,-13,7
113911155594,-6,12,92,45,87,33,37,7
113911155594,4,-11,109,3,-39,9,-5,40
113911156368,-3,0,10,15,25,22,-9,5
113911156368,-4,13,-16,8,-29,-24,-45,-26
113911169947,5,4,-117,-22,-36,-19,51,20
113911169947,8,-8,-99,13,3,14,14,19
113911178108,-4,-2,8,-8,-24,-15,8,-24
113911178108,0,-3,-6,11,-8,-6,17,-7
113911193146,4,-17,46,2,-15,-4,54,28
113911193146,4,-7,-96,-10,-8,11,-10,10
113911193754,-9,4,-102,0,-11,-13,-13,-34
113911193754,0,-11,-99,37,22,-5,22,-2
113911207529,1,-3,-88,-7,2,8,29,22
113911207529,-4,5,-22,-14,-12,-9,-28,-12
113911214734,0,9,12,-18,11,-3,-4,-11
113911214734,-1,-8,16,-3,19,12,13,7
113911238690,-3,4,12,-14,-27,-12,0,-3
113911238690,0,-5,12,-17,0,-1,-23,-3
113911239551,-2,2,17,-12,-1,5,13,0
113911239551,1,9,31,-5,25,1,16,-2
113911252979,-5,2,7,-25,-36,-18,-3,-6
113911252979,1,-4,12,-12,3,8,-51,7
113911253643,-5,-6,21,14,29,15,-64,2
113911253643,-3,1,20,-5,1,-4,-59,-8
113911267317,2,2,15,-9,-7,-1,-16,3
113911267317,0,-1,2,-10,-10,0,19,5
113911283130,-2,0,6,-9,-11,-6,19,-9
113911283130,0,2,6,-3,-7,0,34,-1
113911289765,-2,-2,-15,2,5,6,21,7
113911289765,1,-2,-22,-10,-16,-3,-1,-2
113911297898,-5,-5,-43,3,-3,6,11,-5
113911297898,2,3,-32,6,26,5,5,-2
113911312954,-2,-1,-14,-7,-7,-7,8,0
113911312954,-1,-3,1,9,-2,2,29,0
113911313759,1,-7,-31,10,8,2,16,-3
113911313759,1,13,-38,1,-9,-5,-1,-3
