timestamp,emg1,emg2,emg3,emg4,emg5,emg6,emg7,emg8
68578926978,-1,0,-1,2,-5,-5,-2,-1
68578926978,1,-1,0,-1,-2,-2,-1,-3
68578927877,-1,0,0,-2,0,-1,-1,-2
68578927877,0,0,-1,-3,-2,-1,-2,1
68578928539,-1,-1,-1,-1,1,2,1,-1
68578928539,-2,-2,-1,-2,-2,-3,-2,-3
68578929543,0,-1,-1,0,-3,-2,-1,0
68578929543,0,0,-1,-1,-2,-3,-1,-3
68578940106,-1,-1,-1,-3,-1,-1,0,-1
68578940106,-3,1,-1,1,-1,-2,-1,0
68578949544,-1,-1,-1,-2,5,4,1,-1
68578949544,-2,-1,-2,3,0,1,0,1
68578954970,-1,-1,-2,-6,-2,-3,-1,-7
68578954970,-1,0,-1,4,3,0,-2,-2
68578970806,-2,-2,-1,-3,-9,-7,-2,-2
68578970806,0,-2,-3,-10,5,-2,-2,1
68578978814,-2,-1,0,0,-7,-2,-3,1
68578978814,-1,-2,-3,2,7,2,1,0
68578985107,0,-2,0,-1,2,-1,-3,-4
68578985107,-1,-2,0,3,-5,0,-1,0
68579000230,1,-1,-2,-5,3,1,0,-3
68579000230,-2,-1,-1,-3,-5,-2,0,-5
68579008642,-1,-1,-2,0,-2,-3,-2,-1
68579008642,-3,-1,2,-2,-2,-3,-2,-6
68579048246,1,-1,-2,0,-1,1,1,4
68579048246,0,-1,-1,1,1,1,1,-3
68579049241,-1,-1,-2,-2,1,1,0,-1
68579049241,-2,-2,0,0,-5,-5,-5,-2
68579049836,1,0,-1,0,1,-2,-2,-3
68579049836,-4,-1,-1,-1,-2,-1,-1,-6
68579053014,-2,-1,1,-3,-4,-2,-4,-1
68579053014,-1,-1,-3,0,-1,1,0,-3
68579059985,-1,0,-2,-1,-3,-1,-1,3
68579059985,1,0,-1,-5,-2,-2,-2,2
68579067406,0,0,-1,6,2,1,1,-6
68579067406,-1,0,0,2,-3,-2,-2,2
68579076217,2,-1,0,2,5,3,1,17
68579076217,0,-2,-3,-3,-7,-2,3,-31
68579090679,-3,0,1,-5,-2,-1,-4,7
68579090679,-2,0,-4,-5,-1,-1,-2,-2
68579097430,-1,-2,0,-1,-2,-1,2,0
68579097430,-1,1,1,4,4,0,-1,5
68579104857,1,-2,-3,-2,-2,-4,-2,2
68579104857,0,0,-1,-3,-7,-2,2,-4
68579120010,-2,-1,0,0,8,1,-2,-7
68579120010,-1,0,0,0,2,4,0,11
68579127462,-1,-1,-2,-2,-5,-1,1,-5
68579127462,-1,0,1,-1,-1,-3,-2,3
68579136299,-2,0,-4,-2,-4,-3,-2,-7
68579136299,1,-2,0,1,1,0,-1,6
68579150604,1,-1,-3,-3,-1,-2,-2,-1
68579150604,-1,-2,-1,0,3,5,2,0
68579157288,0,-1,1,-1,-1,-1,-3,-2
68579157288,-2,-2,-2,-3,-1,-1,-1,-1
68579164817,-1,-1,-2,-1,-1,1,0,-3
68579164817,-1,1,0,-4,4,-5,-2,0
68579179803,0,0,0,-1,-5,-3,-3,-6
68579179803,-1,-1,-1,3,4,5,1,6
68579188064,-1,-2,1,-1,-4,0,0,0
68579188064,0,1,0,2,0,-1,-2,0
68579194745,0,-1,0,-2,-4,-3,-1,-2
68579194745,-2,-2,-3,-6,-4,-5,-3,0
68579210586,-1,-2,-1,0,-3,1,0,-1
68579210586,-1,-3,0,2,0,-1,0,-4
68579217256,-3,-1,0,5,1,-1,-2,-2
68579217256,0,-1,-2,-2,-6,-5,-4,1
68579224828,1,0,3,-1,3,1,-2,-2
68579224828,0,-4,-2,1,-1,2,-1,0
68579239792,1,0,0,-4,-1,-2,-2,-3
68579239792,-2,-2,-3,-3,-3,-3,-4,-3
68579247979,0,0,-2,1,3,-2,0,3
68579247979,-3,-2,1,-2,-7,-4,-3,-3
68579254928,-1,-2,-2,0,0,2,1,-1
68579254928,-1,-1,2,-6,-6,-4,-3,-3
68579270615,-1,0,-8,-4,-9,-1,2,-1
68579270615,0,-1,1,1,12,4,1,1
68579277474,0,-1,-3,-2,0,2,2,1
68579277474,-1,-1,1,0,0,-1,0,0
68579293093,-2,-2,1,1,-1,0,-1,-2
68579293093,0,-2,-2,-3,-5,-2,-1,-2
68579299941,-2,-2,-2,-4,-4,-2,-3,-2
68579299941,0,0,-1,-1,-1,-5,-3,-1
68579307407,1,-3,-6,0,3,3,1,1
68579307407,-1,-1,5,-2,-8,-1,-3,-1
68579316181,-2,-3,-3,-6,-4,-1,-2,-2
68579316181,-1,-1,-2,0,-3,0,1,-3
68579330315,-2,0,-3,-1,-5,-6,-4,-3
68579330315,2,-1,-5,-9,9,5,3,2
68579337146,0,-2,-2,7,0,-2,-1,-1
68579337146,0,0,-1,-13,3,-1,-1,1
68579352798,-1,-4,-2,13,2,-1,-2,1
68579352798,-1,-1,-3,-1,-2,0,0,-1
68579359657,-3,-2,1,-2,-3,-1,-2,-2
68579359657,-1,-2,-6,-3,-4,-3,0,-1
68579367246,-1,1,18,10,0,-2,0,-2
68579367246,-1,-2,-4,-3,2,0,-1,-1
68579376169,-1,-2,0,-1,-2,1,0,-1
68579376169,-2,0,-3,3,2,1,-2,0
68579390526,0,-1,-4,-9,-6,-6,-5,-3
68579390526,0,-1,3,5,1,3,-1,-1
68579397382,-1,1,-5,0,0,-3,0,0
68579397382,-1,-1,6,6,-5,-2,-3,-1
68579413101,-1,-1,-1,-18,-3,1,1,-1
68579413101,1,-1,-3,16,7,-3,-1,-1
68579419799,0,1,2,-3,1,3,0,-2
68579419799,0,-1,10,5,5,3,3,0
68579427442,-2,0,-30,-6,-1,-2,-2,-2
68579427442,-2,-5,0,-3,-11,-8,-5,-3
68579436350,-1,0,1,0,3,3,-1,-2
68579436350,-1,-2,5,-6,-8,-2,0,5
68579450521,0,-2,-6,8,9,1,-2,-1
68579450521,0,0,-5,2,-2,-2,-1,0
68579457444,1,1,-4,-7,-1,-2,-3,-2
68579457444,-2,0,0,-3,0,-1,-3,-3
68579473152,0,-1,-3,-6,-6,-2,-2,-2
68579473152,-3,-1,-8,-7,-9,-8,-2,-3
68579479893,-1,-1,4,6,6,5,3,-1
68579479893,2,-2,9,1,2,0,-1,3
68579487347,-3,-5,-9,-2,4,3,0,-1
68579487347,3,6,11,0,-2,-1,0,0
68579496330,-2,-7,-15,-12,-12,-8,-4,-4
68579496330,-2,-3,-1,2,2,2,1,-4
68579510585,0,0,6,2,-4,-2,-2,-2
68579510585,-1,3,1,-6,2,3,1,1
68579517223,1,0,4,5,6,3,1,1
68579517223,0,2,1,6,-4,-5,-1,-2
68579533138,0,0,7,-4,-6,-6,-4,-1
68579533138,-2,0,-1,2,25,7,4,0
68579539920,-1,1,7,-5,-9,-8,-6,-1
68579539920,-2,-2,-23,-7,0,1,-1,-3
68579547394,-2,2,15,2,-7,-4,-1,-1
68579547394,-1,-1,-2,-2,-9,-5,-5,-3
68579556250,2,-2,-7,4,10,7,6,3
68579556250,-1,-4,13,2,-1,-3,-4,-3
68579570675,0,-2,-1,-5,0,2,-1,-2
68579570675,0,2,-2,-2,-6,-2,0,0
68579577459,-3,-1,-5,-6,-4,-4,-4,-4
68579577459,-2,0,-13,-10,-11,-7,-5,-2
68579593160,0,-1,12,15,15,10,9,2
68579593160,-2,-6,-4,-3,-2,-2,-2,-2
68579599917,1,3,5,7,0,0,-3,-2
68579599917,-2,-7,-19,-15,-3,0,2,2
68579607427,-2,-1,-5,-9,-7,-9,-8,-5
68579607427,0,2,4,6,5,6,3,-1
68579622424,1,0,4,2,-12,-4,0,2
68579622424,1,2,-3,2,19,10,3,3
68579630553,-3,-3,-7,-4,-14,-7,-2,0
68579630553,3,2,-1,1,26,6,4,2
68579637336,-2,0,1,-1,-10,-9,-6,-4
68579637336,-2,-6,-6,0,-10,-7,-5,-7
68579653805,6,13,19,1,7,4,3,5
68579653805,-4,-11,-26,-23,-22,-1,-1,-1
68579659981,-4,-4,5,23,10,3,0,-1
68579659981,-1,0,3,-31,-27,-7,-4,-3
68579674780,-2,-1,7,-10,-4,-7,-5,-4
68579674780,3,13,-9,-6,-50,-20,-2,1
68579682407,6,12,7,4,8,10,7,9
68579682407,-3,-10,-5,-8,-15,-3,-3,2
68579691254,-2,-8,8,5,0,2,0,-2
68579691254,-4,-1,7,-39,-30,-12,-10,-7
68579697227,-8,-4,-10,-37,-59,-26,-11,-10
68579697227,8,15,11,80,92,31,15,6
68579713762,1,2,-1,-16,-15,-1,-2,3
68579713762,-1,-11,1,44,36,12,1,4
68579719826,-3,-3,1,-63,-77,-22,-11,-7
68579719826,0,0,10,32,21,-2,-1,-1
68579734695,-1,0,-21,15,20,10,2,-4
68579734695,-3,-4,-1,-18,-12,-8,-6,-3
68579742184,2,-3,-11,6,21,9,7,3
68579742184,-2,-3,-4,-19,-30,-14,-12,-6
68579751198,-2,-1,-1,6,4,-1,-2,-1
68579751198,-1,1,0,-8,-18,-8,-4,-3
68579757174,0,-2,2,11,33,12,6,2
68579757174,-2,-2,-3,-4,-7,0,-2,-3
68579773715,0,-3,-5,-12,-8,-5,1,0
68579773715,0,-2,1,-2,-2,-3,-2,0
68579779670,-2,-2,1,22,25,2,-7,-4
68579779670,-1,4,4,-4,-2,-3,10,4
68579794726,-1,0,-5,3,-3,7,3,2
68579794726,-4,-2,-1,1,5,4,3,-7
68579802188,-1,-2,1,14,19,2,2,3
68579802188,-2,-3,-9,-20,-23,-6,-4,-3
68579811235,0,-1,-3,-7,-2,-6,-3,-2
68579811235,0,0,6,1,-16,0,2,-2
68579817189,-1,0,1,22,46,8,3,-1
68579817189,-1,-3,-2,-4,-8,-4,-4,-2
68579833720,-2,2,1,-10,-25,-6,-3,-4
68579833720,2,-1,1,0,34,9,-2,1
68579839694,-1,-4,-5,-7,-7,0,0,-1
68579839694,-2,-3,-4,-16,-23,-5,0,0
68579854707,-1,-3,-1,10,32,5,-3,-3
68579854707,-2,-6,-8,11,-3,2,4,2
68579862214,-1,-1,13,2,-6,-4,-2,0
68579862214,0,0,-2,13,13,4,5,-1
68579871238,-1,0,-6,-27,-20,-10,-4,0
68579871238,-1,-3,0,4,10,1,-2,0
68579877183,1,0,-5,15,14,6,-1,-2
68579877183,0,1,3,12,17,8,4,3
68579893696,-2,-4,-5,-5,-8,-4,-4,-2
68579893696,0,-1,2,-2,-9,-1,-2,0
68579899676,1,-1,-4,5,10,-3,-2,0
68579899676,-2,-3,1,-19,-25,-10,-6,-4
68579914899,2,-2,0,19,27,13,5,4
68579914899,0,0,2,6,5,-5,-2,-1
68579922466,-1,4,0,-22,3,3,1,1
68579922466,0,-1,1,2,-13,-8,-6,-1
68579931238,2,0,5,38,23,4,2,0
68579931238,-3,0,2,-2,-5,-1,-2,-2
68579937463,-2,-2,-5,-20,-23,-5,-5,-4
68579937463,-1,3,0,4,5,3,0,0
68579953800,-3,-3,-4,-15,4,-1,-3,-2
68579953800,-4,-2,3,13,1,0,0,-1
68579959990,-1,-1,3,14,14,-1,-2,-4
68579959990,1,0,-1,-7,-6,-4,-1,1
68579974800,-3,-5,-7,-11,-18,-6,-2,-3
68579974800,-1,-1,-3,-3,0,3,0,-1
68579982378,-1,-4,-5,-23,-28,-9,-4,1
68579982378,0,1,4,26,21,11,3,-1
68579991252,-2,0,-6,-8,0,-4,-1,-2
68579991252,0,0,0,-6,-14,-6,-3,-2
68579997427,0,-3,-2,0,7,2,-1,0
68579997427,0,-1,-4,-7,-6,-5,-4,-3
68580013786,-1,-2,5,0,-3,0,0,0
68580013786,-1,0,-1,-7,1,0,-1,0
68580019856,-2,-6,-4,10,9,3,0,-1
68580019856,-1,-1,-6,-9,-2,-4,-2,0
68580034880,0,-1,1,-3,-8,-2,-1,0
68580034880,0,-1,3,1,-4,-6,-3,0
68580042219,-3,-1,1,-2,-8,-1,1,-2
68580042219,-3,-5,-7,-5,-12,0,-1,-1
68580057903,1,2,0,2,5,4,4,0
68580057903,-1,-1,-1,3,-1,-1,0,1
68580058819,-1,1,-5,-10,-14,-7,-2,-2
68580058819,-1,0,2,5,3,-2,-1,-1
68580073770,0,-1,0,-17,-15,-7,-4,-2
68580073770,0,-2,0,8,19,8,3,-1
68580079941,-2,3,1,11,-3,3,1,1
68580079941,0,-1,0,-6,4,-2,-3,-4
68580094967,-3,-2,-3,1,-4,-1,0,0
68580094967,-1,0,-4,-18,-11,-8,-5,-3
68580102257,1,-1,-2,9,0,8,5,1
68580102257,-2,-2,0,-8,-13,-3,-1,-2
68580118093,-2,-1,-2,2,4,3,0,-1
68580118093,-1,-2,-2,3,4,3,2,-1
68580118745,-1,0,-3,-8,-9,-8,-5,-3
68580118745,-2,-1,-3,-5,-3,0,0,1
68580133750,0,-2,0,6,-10,-1,1,-1
68580133750,-2,-3,-4,-28,-13,-5,-2,-3
68580139887,1,-1,1,17,21,4,2,1
68580139887,-1,-1,-2,-5,10,7,1,1
68580154882,-2,-1,2,5,-5,-11,-5,-1
68580154882,0,-1,-3,-3,-6,1,-2,-1
68580162420,-1,-1,1,-2,-3,-4,-1,1
68580162420,-1,1,-2,-6,13,-1,-3,-2
68580178088,-2,-1,-4,10,6,-1,-1,-2
68580178088,-1,2,5,-2,-5,2,0,1
68580178698,-1,0,2,-2,-7,-5,-4,0
68580178698,-2,0,1,1,-4,-2,-1,0
68580193888,0,0,-4,1,6,1,0,-1
68580193888,-2,-3,-1,7,6,-3,-1,-3
68580199873,0,0,-3,-8,-2,2,0,-2
68580199873,-1,0,1,1,-7,-3,-2,-2
68580214970,-1,-1,0,2,3,4,2,0
68580214970,-1,1,-3,-5,-3,-3,-1,1
68580222403,-1,-1,-4,2,0,-1,-2,-1
68580222403,-1,-3,-4,-11,-22,-5,-2,-2
68580238115,-1,0,6,18,10,1,1,0
68580238115,1,-1,-1,1,14,4,-1,1
68580238659,-2,-1,-2,-4,-9,3,0,0
68580238659,-1,1,-3,-9,-3,-5,-3,-2
68580253722,-1,-3,-2,2,15,1,-1,-1
68580253722,-1,-1,-1,-3,-6,-2,-1,-1
68580259920,-1,-3,-3,-5,-7,-5,-4,-3
68580259920,-2,-2,4,10,9,3,2,-1
68580274896,-3,-2,-2,-19,-22,-6,-4,-3
68580274896,-1,1,0,16,18,2,-1,-3
68580282459,0,-1,-1,-1,8,-1,0,-2
68580282459,-2,-1,-1,5,7,4,0,-1
68580297987,0,0,-2,-9,-2,-1,-2,0
68580297987,-1,-2,-3,2,-7,-6,-1,-1
68580298765,-2,-2,-1,-12,-16,-4,-1,-1
68580298765,0,-2,0,1,-2,-3,-1,-1
68580313729,-3,0,0,-11,-22,-6,-4,-4
68580313729,1,0,6,16,22,8,3,3
68580319874,0,-1,-4,1,-5,-4,-2,-1
68580319874,0,-2,0,-12,-4,5,1,0
68580334858,-1,0,0,19,-14,-6,-2,1
68580334858,-3,-3,-5,-18,5,-2,-1,-2
68580342428,-2,1,2,-1,9,1,-2,-1
68580342428,0,-1,1,10,14,5,3,0
68580358132,1,-1,-2,-4,7,3,0,-2
68580358132,-1,-2,1,2,-18,-7,-5,-3
68580358698,-2,1,-2,4,9,2,2,0
68580358698,-1,0,-1,-1,-9,-3,-2,-1
68580373825,-1,-1,0,6,26,7,2,0
68580373825,-2,-1,-3,2,-4,-2,-1,0
68580379934,0,0,0,-3,1,1,-2,-1
68580379934,-1,-1,0,3,-8,-2,0,3
68580394981,-2,1,-1,-5,1,0,0,-1
68580394981,-2,-2,-2,-8,-14,-7,-4,-2
68580402240,0,-3,0,4,6,1,1,-1
68580402240,-1,-1,-3,5,1,0,0,-1
68580417915,-1,-1,1,-8,-1,-1,-1,-1
68580417915,-2,-2,-3,3,1,0,-1,-1
68580418820,-2,0,-2,-3,-10,-3,-2,-3
68580418820,-1,-1,-2,-7,-6,-1,-2,-2
68580433843,-1,-1,-1,-1,-1,-7,-2,-1
68580433843,1,0,1,-1,4,8,4,0
68580440016,-2,-1,7,16,18,0,-2,0
68580440016,0,3,-3,-6,-3,-7,-5,0
68580454809,-1,-3,-3,-8,-12,-3,-2,-1
68580454809,-1,0,-6,0,-10,-1,-1,0
68580462441,-1,-2,-4,-10,-13,-5,0,1
68580462441,-2,-1,1,1,11,5,2,0
