timestamp,emg1,emg2,emg3,emg4,emg5,emg6,emg7,emg8
68515087206,-1,-1,-2,-3,3,2,0,-1
68515087206,-1,0,-2,-2,0,-1,-1,0
68515087950,-2,0,3,1,-4,-2,-2,-3
68515087950,0,-2,-3,-7,-6,-4,0,-2
68515088708,-1,-1,-1,-6,-8,-3,-1,1
68515088708,1,0,0,7,6,3,0,0
68515089600,-1,-2,-2,-10,-7,-4,-2,0
68515089600,0,-1,-1,2,0,2,-1,-1
68515100230,-1,-3,1,-2,-1,-1,-1,0
68515100230,-2,-4,-3,-2,-2,-1,-1,-2
68515109685,2,2,-2,2,-7,-3,-1,0
68515109685,-1,0,-2,-3,-4,-1,-1,1
68515115150,1,0,-1,-1,1,0,-1,-1
68515115150,0,-2,-1,6,10,3,-2,-1
68515130919,0,0,-2,-1,12,1,0,-2
68515130919,-1,1,1,-3,4,3,1,-1
68515138985,-2,0,1,1,-7,-2,0,-1
68515138985,1,-1,4,1,-13,-2,-2,-1
68515145357,-3,-4,-2,8,12,3,0,-1
68515145357,0,-2,3,5,4,-4,-1,0
68515160367,2,3,-9,-2,-1,-1,0,-1
68515160367,-3,-3,3,-2,-10,-4,0,-2
68515168957,-2,-3,-3,-6,-10,-4,-2,-2
68515168957,0,1,1,3,-1,-2,-2,-1
68515209256,1,-4,-2,-5,0,-1,0,0
68515209256,-1,-1,0,6,5,-1,-2,0
68515210337,0,0,-1,-2,1,-1,0,0
68515210337,-3,-1,1,0,-2,0,0,-2
68515214002,-2,0,-2,0,-3,0,1,0
68515214002,0,-2,-2,-6,-2,0,-1,-3
68515214628,-3,-2,-1,1,-2,-2,-2,0
68515214628,1,2,0,-2,-1,-1,0,0
68515220203,-3,-3,-1,-2,-2,-1,-1,-3
68515220203,0,0,0,-1,0,-1,1,0
68515228388,-1,2,2,1,-3,0,-1,-2
68515228388,0,-5,1,5,-7,-4,-2,0
68515235238,-1,0,-10,-9,20,5,0,0
68515235238,-3,0,-5,-7,-2,-2,-2,-2
68515250677,-1,-1,0,-1,-6,-1,0,0
68515250677,-3,-4,-2,-6,-4,0,-1,-1
68515265592,0,3,0,-1,-4,-2,-2,-1
68515265592,-4,-4,1,-8,-16,-8,-4,-2
68515266549,0,0,-6,-6,2,1,1,-1
68515266549,-1,0,-1,7,0,1,0,-2
68515280197,-2,-1,4,6,-4,-4,-3,-2
68515280197,0,0,-4,-3,-1,1,-1,0
68515288343,0,-2,0,-9,-15,-7,-4,-1
68515288343,0,-1,-1,-8,-1,-3,-1,0
68515295029,2,0,0,2,-1,0,-3,1
68515295029,0,1,2,1,4,-1,0,-1
68515310829,-2,-3,-1,2,0,1,0,-1
68515310829,-3,1,-5,0,-1,-3,-2,-2
68515317624,-1,0,2,5,0,1,1,0
68515317624,-1,-1,-2,1,7,1,0,0
68515325116,-2,-5,1,1,5,2,0,-2
68515325116,1,0,-4,-4,-2,-3,-2,-2
68515340174,-2,-1,5,5,-5,-4,-1,-2
68515340174,1,-1,-2,2,-6,-1,1,-1
68515348402,2,1,0,4,8,3,-1,-1
68515348402,-3,-1,-4,-10,-5,-1,-1,-2
68515355145,0,-1,-1,6,5,-1,-2,-2
68515355145,0,0,2,-2,3,3,-1,-1
68515370797,-1,-2,-1,8,8,-1,-1,1
68515370797,-1,-2,4,-3,-5,-4,-1,-2
68515377660,-2,-1,-3,-3,0,1,0,-1
68515377660,-1,-1,3,8,13,5,2,2
68515385127,-1,1,-1,-4,11,0,-2,-1
68515385127,-1,0,-3,-4,-4,-2,-2,-1
68515400146,-2,-3,-3,-2,-4,-2,0,-2
68515400146,-2,-3,5,13,-4,-2,-2,-2
68515408308,1,-2,-3,-2,-1,-2,0,-1
68515408308,-1,-1,4,-2,5,2,1,-1
68515415286,-1,-3,-19,-14,-8,-2,-1,0
68515415286,0,-1,-5,-5,-2,0,1,-1
68515430880,-1,-1,3,0,-11,-2,0,-1
68515430880,0,1,0,4,19,2,-2,-1
68515437542,0,-2,5,0,-5,-3,-2,-2
68515437542,-3,-3,-3,-5,-8,-4,-2,-2
68515445198,-4,1,-4,-2,-13,-7,-4,0
68515445198,2,-1,2,8,5,4,1,1
68515460199,1,1,-1,-4,-1,0,-1,1
68515460199,1,3,-2,0,1,0,2,0
68515468358,-1,-7,-3,-8,-6,-2,-2,-1
68515468358,-1,2,-3,-1,-9,-3,-1,-3
68515475084,-3,0,1,1,4,1,-2,-2
68515475084,-2,-2,-1,1,-1,-2,-3,-1
68515490798,-1,-1,-2,0,2,0,0,-1
68515490798,-2,-4,-2,0,0,0,-2,-1
68515497657,0,-1,4,3,0,1,-1,-2
68515497657,-1,1,-2,-2,-8,-5,-2,-3
68515505041,-1,0,0,-6,2,2,-1,-1
68515505041,-1,-4,-4,-1,1,-1,-1,1
68515520143,-2,-2,3,1,-8,-5,-1,0
68515520143,-2,-1,-1,0,2,1,-2,0
68515528329,0,0,7,5,5,3,1,0
68515528329,2,-1,-18,-8,-4,-4,-2,-2
68515534948,0,0,-1,-9,-8,1,0,0
68515534948,0,0,1,3,20,2,0,-1
68515550637,-4,-1,-8,-1,-2,-2,-3,-3
68515550637,-1,0,1,-1,-5,-2,1,-1
68515557636,0,-1,6,11,4,5,2,1
68515557636,-1,1,-4,-7,-16,-7,-3,0
68515573202,0,-5,-3,-6,1,-1,1,-1
68515573202,-2,0,5,3,-6,0,-1,0
68515580238,-1,-2,-8,-12,3,0,0,0
68515580238,-1,0,9,13,5,2,1,1
68515588328,-1,3,-4,-3,-2,-1,-2,-2
68515588328,-1,-2,7,3,-8,-4,-1,-1
68515595163,-3,-2,-13,-6,2,-2,-2,0
68515595163,-1,-2,-14,-13,-6,-3,-2,-2
68515610865,1,0,0,2,-4,-1,-1,-1
68515610865,-1,3,12,-4,-1,0,1,0
68515617630,0,5,-1,10,4,-4,-1,-1
68515617630,-4,-7,-7,-3,-4,-4,-3,-3
68515633111,-1,1,10,3,-4,-2,0,-2
68515633111,-3,-1,-11,-12,-2,1,0,0
68515639945,-2,-2,7,6,16,4,-1,0
68515639945,-1,-2,-4,-5,-11,-3,-2,-1
68515648366,-2,0,-3,-2,0,-3,0,-1
68515648366,0,-5,-2,4,-3,-1,-2,-1
68515655099,-2,-3,0,-6,-12,-4,-1,-2
68515655099,-1,-1,3,-2,3,-1,-3,-2
68515670844,-2,-1,-9,-4,2,0,-1,0
68515670844,2,2,-1,10,3,-1,-2,0
68515677625,0,-1,-2,-5,-9,-4,0,-2
68515677625,0,0,2,-7,-5,-3,-1,1
68515693532,-1,0,7,14,6,0,-1,-1
68515693532,-3,-3,-14,3,-5,-1,0,0
68515700028,-2,-3,-3,-13,16,0,-2,-3
68515700028,-1,2,7,-9,-12,-5,-1,-1
68515708211,-2,-5,-27,-11,-6,0,-1,-2
68515708211,0,0,-2,9,10,8,3,1
68515715234,0,-2,-3,-1,-18,-8,-2,-1
68515715234,-4,-2,-3,9,2,0,-2,-2
68515730851,-2,-2,-1,-4,8,1,3,0
68515730851,-2,-2,11,-5,-8,-5,-4,-2
68515737648,1,3,-26,-8,-2,0,-1,1
68515737648,0,1,6,10,3,-1,-1,0
68515753526,0,0,5,8,-1,3,1,0
68515753526,-2,-2,0,-3,-3,-5,-4,-1
68515760076,0,2,11,0,-6,-2,-2,-1
68515760076,0,-9,-23,-2,4,3,2,1
68515767621,-2,0,10,4,-7,-3,0,0
68515767621,0,0,6,-6,6,3,1,2
68515776460,-1,-1,-12,4,6,-1,-2,0
68515776460,3,8,30,12,-9,-2,3,0
68515791202,-4,-9,-57,-3,6,2,0,0
68515791202,0,0,7,-9,12,1,-1,-3
68515798996,-3,-3,13,6,3,1,-1,-2
68515798996,0,-4,-8,0,-8,3,5,7
68515814057,-1,8,18,-17,3,-1,-5,-9
68515814057,3,5,-12,17,-8,-4,-2,3
68515820203,-5,-3,15,-16,-26,-14,-12,-7
68515820203,-1,-3,-18,20,38,16,6,0
68515835826,-1,3,44,9,5,-4,-6,-8
68515835826,-2,3,-14,-14,-5,0,1,-4
68515836428,5,6,10,-5,-24,-6,-1,2
68515836428,-3,-8,-7,0,30,12,-1,0
68515851560,-1,4,22,11,-25,-18,-7,-2
68515851560,-4,0,-11,-32,-8,-4,-2,-9
68515857692,3,3,7,30,31,9,12,10
68515857692,-2,-12,-5,1,28,29,10,1
68515873946,2,-1,-4,0,-51,-14,-4,4
68515873946,2,-2,0,36,79,23,10,5
68515880143,-3,-1,31,-38,-70,-26,-9,-4
68515880143,-2,8,7,30,-9,-17,-6,-8
68515895251,-1,0,1,8,57,28,17,11
68515895251,-5,-11,-14,-25,-23,-6,-4,0
68515902701,-11,-7,-10,11,-6,-4,-6,-12
68515902701,3,6,22,-21,-15,-10,-4,0
68515911603,-1,-8,-20,-19,-19,-15,-5,-5
68515911603,-2,4,10,-14,-25,-3,0,1
68515917482,1,-2,-9,33,53,19,6,4
68515917482,-2,-2,-2,-20,-5,-2,0,-3
68515934013,-3,-6,-16,-6,-15,-8,-8,-5
68515934013,0,0,4,6,6,0,0,1
68515940199,1,-4,-12,-6,-6,-1,-2,0
68515940199,-2,1,-4,-7,-21,-11,-4,-3
68515954956,-2,-2,-4,8,14,9,4,4
68515954956,6,2,6,9,11,2,-2,-1
68515962725,1,2,-1,-9,-30,-6,-2,-1
68515962725,-2,1,-6,-16,34,0,-5,-2
68515971448,-1,-1,12,18,8,8,2,0
68515971448,-6,-5,7,0,-35,-12,-5,-5
68515977632,0,0,8,1,35,12,3,-1
68515977632,-2,-2,-8,0,-12,-6,-3,-1
68515993978,0,-3,-7,-13,-25,-10,-4,-3
68515993978,1,3,-2,22,41,13,5,2
68516000223,-1,-3,20,-11,-13,-3,-1,-1
68516000223,-2,-3,-8,-13,-30,-10,-3,-1
68516015042,1,-1,6,1,11,4,-2,0
68516015042,0,-3,-10,-17,-32,-8,-4,-3
68516022579,-4,-3,-4,14,33,3,1,-2
68516022579,1,-1,-1,-4,-19,-3,-1,-1
68516031477,-2,-1,-16,-8,14,-2,0,0
68516031477,-2,2,7,-4,-15,-6,-3,-2
68516037478,3,-8,-23,-2,16,6,0,0
68516037478,0,2,3,4,0,1,-1,-1
68516053984,2,0,2,-10,-1,-1,0,-3
68516053984,-8,-4,4,15,-15,-7,-5,-2
68516060165,0,-4,-11,-1,9,2,0,0
68516060165,1,3,9,6,-22,-6,-2,0
68516075120,0,-4,-9,-3,19,2,1,0
68516075120,0,-1,-8,-5,1,1,1,-2
68516082512,-2,1,5,2,-13,-5,-3,-3
68516082512,-4,-2,10,-4,-3,1,-2,-2
68516091466,0,1,3,4,-10,-4,-2,-2
68516091466,-1,-5,-4,0,1,-5,-5,-2
68516097614,0,1,-7,-10,0,2,5,3
68516097614,0,-1,9,16,9,1,-2,-2
68516113984,-5,-2,-18,-11,10,5,1,-1
68516113984,2,-2,-8,-13,-12,-2,-3,1
68516120105,-1,4,4,1,23,8,2,-2
68516120105,-2,-1,-2,-8,-16,-11,-5,-2
68516143238,-1,1,10,1,-20,-10,-5,-2
68516143238,-2,-3,-8,7,0,2,2,1
68516143923,-2,-1,-12,1,-8,4,2,-2
68516143923,-1,-5,-7,0,40,6,0,0
68516151452,0,0,19,1,-7,-6,-4,-3
68516151452,3,2,-12,-14,-4,-3,0,-1
68516157438,-2,-2,-3,2,-17,-4,-3,-2
68516157438,0,1,-9,-6,-6,-2,0,0
68516174023,0,-5,0,1,-6,2,0,-1
68516174023,-1,2,6,-4,-4,-6,-3,-1
68516180005,-2,2,-1,-3,-8,-3,0,0
68516180005,0,-1,-6,-6,1,-2,-1,0
68516195129,0,1,-5,-2,-7,1,2,2
68516195129,-4,-4,14,10,5,3,2,1
68516202445,1,-1,-3,-10,-12,-6,-3,-1
68516202445,-1,0,-8,4,-4,-5,-3,-1
68516218180,0,-4,-11,-15,23,5,1,0
68516218180,-1,-1,2,-4,-15,-4,-3,-1
68516219128,-2,0,2,12,20,5,2,1
68516219128,-2,-2,-5,-14,-20,-6,-1,-1
68516233966,0,4,13,6,-9,-2,-2,0
68516233966,-1,-7,-2,15,23,7,0,-1
68516239954,0,-3,-17,-12,15,-4,-5,-3
68516239954,-2,-3,5,-5,-23,-3,-1,-1
68516255148,-1,1,12,14,1,-2,0,-1
68516255148,0,0,-9,-13,-8,-2,0,-1
68516262705,0,0,-6,-1,-13,-5,-2,-1
68516262705,0,-3,-2,-3,4,3,1,2
68516278186,-2,-2,3,-8,-11,-3,-2,-2
68516278186,-3,-5,-17,-5,-4,-1,-1,-1
68516278883,0,1,0,2,1,1,-2,0
68516278883,-1,0,7,5,25,5,-1,-2
68516294099,-2,-1,-1,-16,-27,-6,-2,-3
68516294099,0,3,6,18,21,1,0,0
68516299958,-1,-1,-6,-8,-18,-5,-2,-4
68516299958,0,-3,-5,-6,-6,-1,0,0
68516315318,-1,-3,-7,-1,6,0,-1,-1
68516315318,0,0,5,-2,-6,-3,-2,-2
68516322678,-3,-2,-8,-3,-8,-4,-2,0
68516322678,0,3,7,12,5,-1,0,0
68516338267,0,-5,-26,0,32,7,2,2
68516338267,0,-1,-2,2,-10,-1,-1,-2
68516338899,-1,0,9,-4,-7,-1,-1,-1
68516338899,-1,0,-13,-9,0,6,-1,-1
68516353970,-2,1,2,1,-10,-4,0,-2
68516353970,-1,-3,5,-6,-1,-3,-2,-2
68516360125,-2,0,-1,-3,-16,-10,-4,-2
68516360125,0,0,0,3,10,6,2,0
68516375143,-1,-6,-14,-7,-4,2,0,0
68516375143,-1,1,1,-2,4,-3,-3,0
68516382741,-2,0,5,6,-4,1,1,-2
68516382741,-3,-2,-9,-9,-9,-4,-2,-1
68516398362,-1,1,11,8,-1,-1,-1,1
68516398362,-1,-4,-2,2,0,4,0,0
68516398945,-1,-2,-3,-5,-4,0,-1,1
68516398945,-1,-2,2,0,-1,-3,-1,-2
68516413996,0,1,4,-2,-10,-1,-3,-2
68516413996,-1,0,11,3,4,0,0,0
68516420132,0,1,-22,-6,13,1,2,2
68516420132,0,-1,8,12,-1,3,1,-1
68516435227,-2,-3,0,-4,-3,-5,-3,-1
68516435227,-2,2,12,-5,-10,-7,-3,-2
68516442603,-1,-3,-1,-6,-3,-1,-2,-1
68516442603,0,-1,-5,-1,-11,-9,-3,-1
68516458304,0,2,-5,15,23,3,0,-2
68516458304,-1,-3,-4,-4,-11,0,2,1
68516458945,-1,0,8,6,33,9,3,0
68516458945,-2,1,0,-6,-4,-4,-2,-1
68516473999,-1,-2,13,0,-10,-4,-1,-2
68516473999,0,-1,-11,-1,-6,-3,-1,-3
68516480105,1,0,7,6,-9,-3,-3,-2
68516480105,-1,-2,-4,-6,1,5,3,1
68516495254,-1,1,1,-5,-3,-1,0,0
68516495254,-2,-1,-5,7,0,-2,-2,0
68516502464,-1,-3,-1,-5,-7,0,1,0
68516502464,2,-1,-1,-2,5,1,-1,-1
68516518154,0,-1,-3,0,-5,3,1,3
68516518154,-1,1,4,7,0,-6,-3,0
68516519119,-1,-2,-7,-3,-11,-2,-1,-3
68516519119,0,-4,-4,-9,8,-3,-3,-2
68516532514,-1,-1,-7,-4,-5,-1,-3,-2
68516532514,1,-1,1,-4,2,-3,-1,-1
68516540182,0,-1,0,2,-8,-1,-2,0
68516540182,-2,1,-3,5,10,-1,0,-1
68516555151,1,0,4,4,2,2,-1,0
68516555151,-2,-1,-2,1,8,0,-2,-1
68516562635,-2,-1,3,-12,-12,-4,-2,-2
68516562635,1,1,4,9,-11,2,2,0
68516578165,-1,1,2,2,16,-2,0,0
68516578165,-1,-1,2,-4,7,7,2,0
68516579025,-1,-4,-4,2,-14,-6,-3,1
68516579025,-3,0,2,-2,3,0,-3,-1
68516592603,0,1,3,1,2,2,2,-2
68516592603,0,1,-1,-9,-9,-2,-2,-1
68516600111,-1,-1,-3,9,0,-1,0,-2
68516600111,-1,-1,-12,-7,1,-6,-3,-1
68516615215,-2,-2,0,2,-8,-1,0,-1
68516615215,0,0,-9,-3,3,0,0,-1
68516622646,-1,-2,5,5,3,-2,-2,-1
68516622646,0,-1,-3,6,3,1,0,1
68516638286,-4,-2,-7,-15,-3,-7,-5,-3
68516638286,-2,0,-3,-3,-20,-5,-1,-2
68516639080,0,1,0,0,10,4,1,0
68516639080,-1,0,6,10,18,5,0,0
68516652726,-1,-1,-2,-10,-19,-4,-1,1
68516652726,-1,-2,-1,-8,-13,-7,-2,-1
68516660212,-1,-1,-2,11,28,9,3,1
68516660212,-2,-2,2,-8,-17,-5,-3,-2
68516675205,0,-1,-3,1,5,1,2,0
68516675205,-1,2,5,0,1,3,0,0
68516682601,-2,-4,-5,-1,-3,-1,0,1
68516682601,0,2,8,-5,-10,-3,-1,0
68516698328,0,-1,-7,8,-1,0,-1,-2
68516698328,-2,-2,1,0,2,-1,-1,0
68516698887,-1,-2,3,-4,2,-4,-2,-2
68516698887,-2,-4,-10,-13,-9,2,1,-2
68516720848,-2,0,8,10,8,-3,-4,0
68516720848,0,-4,-10,-8,5,-1,-1,-1
68516721364,-1,-1,2,-3,-9,-1,-1,-2
68516721364,-1,-3,-7,-14,-17,-5,-1,0
68516735148,-1,0,-2,-6,-7,-3,0,-2
68516735148,-1,-3,-6,4,17,6,2,0
68516742627,1,2,6,-1,-1,-1,-1,0
68516742627,0,0,0,3,0,-2,-1,-3
68516758236,-1,-1,-2,-2,-9,-1,-1,-1
68516758236,0,0,3,1,3,-2,-3,-2
68516758889,-2,-6,-12,-11,-9,-5,0,-2
68516758889,0,1,16,13,4,2,-1,0
68516772658,0,-2,-2,-3,18,6,3,1
68516772658,0,-3,-12,-6,-15,-4,-1,-1
