timestamp,emg1,emg2,emg3,emg4,emg5,emg6,emg7,emg8
1512715524904165,0,-1,-1,0,1,-1,-2,-1
1512715524904165,-1,-1,-2,0,1,-3,0,0
1512715524909166,-1,-13,-2,0,0,4,0,-3
1512715524909166,-2,4,1,-1,-2,-1,1,-2
1512715524911165,-1,-3,-4,-3,-2,-3,-1,0
1512715524911165,-1,2,1,-1,-1,-6,-4,0
1512715524912165,1,4,2,0,0,1,1,0
1512715524912165,0,-4,-3,-1,0,0,-1,-1
1512715524924165,1,-6,-3,0,-1,-3,-3,1
1512715524924165,-2,-1,3,-1,-2,2,-1,-3
1512715524930169,-2,-1,-2,-1,-2,-4,-3,-3
1512715524930169,1,6,3,-2,-1,2,0,2
1512715524938180,-4,5,2,-1,-2,-3,-2,0
1512715524938180,0,-4,-1,0,-2,3,-1,1
1512715524953181,2,4,0,-1,0,1,1,-1
1512715524953181,-2,-14,-6,1,1,-1,-2,-2
1512715524960167,-2,-3,-2,1,0,-2,0,-2
1512715524960167,-1,-5,-3,-1,-1,-5,-1,1
1512715524975168,-4,0,-6,-4,-1,0,-2,-4
1512715524975168,-2,0,-2,-1,-2,-3,-4,0
1512715524984170,0,0,1,0,1,2,0,-2
1512715524984170,-3,-8,-4,-2,0,-7,-2,-2
1512715524998170,1,7,2,0,-3,-3,1,4
1512715524998170,1,2,0,-3,-1,-1,-3,-3
1512715524999173,-1,1,-2,-2,0,1,0,-2
1512715524999173,-2,0,-4,0,0,-2,-4,-4
1512715525045175,-2,-1,-1,-2,-4,-4,-3,-3
1512715525045175,-1,-4,0,0,3,-1,1,2
1512715525046181,0,0,0,1,-1,-3,-1,-3
1512715525046181,-2,0,-4,-1,3,0,-2,-5
1512715525047174,-2,-3,-2,-3,0,0,-1,-1
1512715525047174,-1,0,0,-4,-5,-6,-3,-5
1512715525051176,0,-1,1,-1,-2,-2,-2,-1
1512715525051176,0,2,-2,3,-2,-3,0,-1
1512715525057177,-1,-7,-2,-2,-1,0,-1,0
1512715525057177,-1,7,0,-2,-2,-1,-3,-2
1512715525066190,0,-2,1,-2,-2,-5,-5,-1
1512715525066190,1,-3,3,1,-5,-5,-1,1
1512715525072181,1,-5,1,1,0,6,2,1
1512715525072181,0,0,-3,0,-5,-2,-1,-2
1512715525089193,-1,2,-3,-1,0,1,2,0
1512715525089193,0,2,1,0,-2,-3,-1,4
1512715525095194,-2,-5,1,-1,-5,-5,-4,-3
1512715525095194,-1,-3,-7,-2,13,4,0,0
1512715525110194,1,1,-1,-1,-4,-3,1,1
1512715525110194,-2,-5,-1,-3,-2,0,-2,-3
1512715525117182,0,3,2,1,1,-2,-1,0
1512715525117182,-1,0,2,0,-3,-3,-2,0
1512715525126180,-2,-6,-1,-1,3,4,1,-1
1512715525126180,0,-1,0,-3,-4,-1,-1,1
1512715525132185,-1,3,-1,-3,-1,-1,-2,0
1512715525132185,0,-4,-4,0,-4,-5,1,-3
1512715525149197,-4,0,-1,1,1,1,-3,-1
1512715525149197,-2,-6,-4,-1,-2,0,1,0
1512715525155200,0,3,-2,-1,-3,-3,-2,0
1512715525155200,0,0,-7,-2,-2,4,2,0
1512715525170202,-3,0,11,-1,0,-2,-3,-4
1512715525170202,-4,7,2,-7,-5,-2,-2,-4
1512715525177188,-1,-11,-1,3,-1,-2,2,0
1512715525177188,0,-2,1,-2,-8,-14,-12,-1
1512715525193189,1,0,-9,-1,1,15,18,4
1512715525193189,-3,-4,6,3,-1,-7,-3,-9
1512715525194202,0,0,-5,-4,9,7,1,-1
1512715525194202,1,3,5,0,-3,3,5,5
1512715525209203,-3,-7,-8,-2,-5,-11,-7,-4
1512715525209203,-1,3,0,-2,-3,3,2,8
1512715525215205,-2,-6,-9,-1,-2,-4,0,-3
1512715525215205,-1,6,0,-1,-4,-5,-2,-1
1512715525230206,2,6,3,0,9,7,-3,13
1512715525230206,1,-4,5,0,4,2,3,5
1512715525237193,-1,-2,3,-1,-2,-3,-4,-4
1512715525237193,-3,-5,-6,-2,2,2,-1,2
1512715525246193,0,-3,-2,-2,-3,-5,0,-7
1512715525246193,0,-2,-5,0,-1,1,-3,-5
1512715525260207,-2,-11,0,-2,0,-2,-1,0
1512715525260207,-1,16,7,-2,-4,4,1,5
1512715525269210,-2,-15,-11,-2,-10,-12,-3,-5
1512715525269210,2,5,-3,7,5,5,-3,-3
1512715525275209,1,8,-1,-2,-9,-3,1,1
1512715525275209,-4,-13,-4,0,10,5,0,-5
1512715525290210,-3,-1,5,-4,-9,-9,-6,-6
1512715525290210,2,-3,-3,5,45,29,8,2
1512715525297197,-1,7,-6,-1,3,-2,-4,3
1512715525297197,-1,-5,10,7,0,-4,-6,-3
1512715525306196,3,7,-3,-3,-3,12,12,-1
1512715525306196,-2,2,-7,-9,-14,-12,-7,-1
1512715525320218,-1,3,5,2,-2,-10,-4,-3
1512715525320218,-1,-3,-1,0,-2,8,10,-1
1512715525329203,-3,3,-1,-1,0,-6,-6,-1
1512715525329203,0,-1,-3,-1,-17,-8,-2,-1
1512715525335213,0,7,2,1,-1,-3,-11,1
1512715525335213,-1,-16,-4,-1,-5,-2,1,-3
1512715525350214,-1,-1,4,-3,2,-1,-5,4
1512715525350214,-3,-4,-9,-6,-4,-7,-1,-15
1512715525357202,0,4,5,4,-5,0,-3,-8
1512715525357202,0,2,4,2,-1,-5,-2,3
1512715525366200,-2,-3,-2,-1,-2,-5,-2,-11
1512715525366200,-1,-8,-5,-6,-3,-3,1,7
1512715525380217,0,-5,1,0,-4,2,5,1
1512715525380217,-1,-4,-6,-6,-8,-7,-4,-4
1512715525389214,-2,4,-1,1,2,-7,-2,-1
1512715525389214,-2,8,1,-4,-12,-3,-8,-3
1512715525395220,1,-5,-2,5,21,9,3,3
1512715525395220,2,3,-3,-1,0,9,2,-3
1512715525410220,-1,-3,1,-1,-5,-1,-2,1
1512715525410220,-2,-10,-4,-1,-3,-13,0,-1
1512715525417205,1,5,-4,-5,-6,1,4,0
1512715525417205,-2,-5,2,-1,0,-4,-3,-2
1512715525426206,0,-4,2,5,6,1,-2,-1
1512715525426206,-2,-1,-9,-6,2,0,-1,2
1512715525440222,-3,1,1,-2,-10,-5,0,-1
1512715525440222,-2,8,-1,-3,3,-3,-2,-2
1512715525449222,0,-6,-5,-1,11,18,2,-1
1512715525449222,1,-3,1,5,-3,1,-4,2
1512715525455223,-1,-2,-5,1,0,-2,6,2
1512715525455223,0,1,1,-2,-2,1,2,-3
1512715525470227,0,2,-2,-4,-5,-6,-6,1
1512715525470227,2,4,7,3,0,2,2,0
1512715525477215,-6,-13,-5,-8,-4,1,-3,-2
1512715525477215,2,6,0,1,0,-15,-3,-5
1512715525487213,-1,0,-1,-1,-7,3,2,0
1512715525487213,-4,-5,3,8,27,5,-4,-2
1512715525500228,2,2,-2,3,-7,5,2,3
1512715525500228,-2,-7,-2,-4,-5,-4,-2,-2
1512715525509231,-2,2,-4,-5,-11,-13,-9,-4
1512715525509231,0,-3,0,-7,-5,5,4,-3
1512715525515229,-1,11,6,0,-6,-15,-8,1
1512715525515229,1,-9,-3,5,16,19,3,-2
1512715525530230,2,-1,6,6,1,2,5,2
1512715525530230,-3,5,-7,-9,-12,-7,-5,-4
1512715525537218,-3,-3,-1,-2,4,3,-2,-3
1512715525537218,0,6,-5,-4,-13,-12,-8,-2
1512715525546221,-2,-7,-5,-1,5,-1,-4,-2
1512715525546221,-1,0,2,-1,-4,0,2,-1
1512715525560234,-1,-2,6,1,-1,3,2,-2
1512715525560234,-4,-10,0,-4,0,-9,-1,-2
1512715525569221,1,11,4,5,9,4,-2,-2
1512715525569221,3,1,0,-1,-2,4,1,2
1512715525575285,-2,1,-2,-2,1,2,2,-5
1512715525575285,0,-4,0,11,7,10,0,0
1512715525590222,-2,-4,-6,-2,9,2,4,2
1512715525590222,-2,2,1,-1,0,-3,-4,-1
1512715525597222,0,-2,3,-2,-1,2,-2,0
1512715525597222,-2,5,-9,-8,-8,-9,-6,-1
1512715525606225,-3,-7,0,1,-10,-13,-4,-2
1512715525606225,2,-4,1,18,13,16,3,1
1512715525620239,0,0,-9,-21,-20,-7,-4,0
1512715525620239,0,3,0,7,10,5,3,0
1512715525629224,-3,0,4,-8,-15,-17,-3,-2
1512715525629224,-3,-6,3,-1,-8,-7,-11,-2
1512715525635239,-2,-6,-2,4,-1,-6,14,0
1512715525635239,1,-4,-6,0,-1,2,-2,1
1512715525650242,1,-1,-2,-3,-9,-1,-1,-1
1512715525650242,-4,-3,-1,-3,-1,-1,0,-4
1512715525657228,1,-2,-3,2,9,-12,-5,0
1512715525657228,0,7,3,-2,-11,11,7,2
1512715525666228,-2,-5,-5,0,8,8,3,-2
1512715525666228,1,2,-1,-10,-13,-10,-2,-1
1512715525680246,-1,0,-4,-1,5,-6,-11,-4
1512715525680246,-3,-2,7,7,10,3,-11,-2
1512715525689230,1,-5,-6,-2,-10,8,4,1
1512715525689230,-2,-1,-3,-6,-8,-5,-1,3
1512715525695229,-2,0,-3,-2,8,6,2,-2
1512715525695229,-3,-4,-6,-10,-5,-6,-5,-1
1512715525710243,0,0,1,4,5,-3,-6,-1
1512715525710243,0,4,0,-2,3,-1,-1,-2
1512715525717232,1,-1,1,-6,-2,2,-2,-2
1512715525717232,-1,-4,0,3,-1,-12,-1,-1
1512715525726231,0,-3,1,6,22,31,4,-1
1512715525726231,1,-3,-2,3,-4,-2,5,0
1512715525740239,2,6,1,3,-2,3,-2,1
1512715525740239,-3,-5,-4,-10,-13,-7,-2,-3
1512715525749250,0,4,1,-15,-17,-12,-3,0
1512715525749250,-3,-5,-4,9,19,0,-6,-2
1512715525755248,-3,-3,1,10,7,0,-11,-3
1512715525755248,0,-2,-1,-1,1,10,11,2
1512715525770248,0,9,1,4,-5,-6,-2,0
1512715525770248,0,3,1,-4,13,5,4,0
1512715525777235,-1,-5,-4,-8,-9,-5,-5,-3
1512715525777235,-2,-5,0,5,19,2,2,0
1512715525786235,-1,1,-3,-7,5,-2,2,-1
1512715525786235,-1,-2,1,4,-19,-2,-3,-1
1512715525800250,1,4,0,5,5,0,5,-3
1512715525800250,-1,7,0,0,4,5,-1,0
1512715525809237,1,-9,-3,0,3,6,3,-1
1512715525809237,-4,-7,-3,-5,-6,-8,0,-2
1512715525815252,-1,2,1,-2,-1,-2,-2,-1
1512715525815252,1,-7,-4,-2,-6,-1,2,3
1512715525830236,-2,14,0,-3,-3,-12,-5,-2
1512715525830236,0,-6,-1,-1,-5,-4,-12,1
1512715525837237,2,0,0,-1,-5,1,2,2
1512715525837237,-1,-2,1,-3,-7,-9,-5,-4
1512715525846240,0,-1,-6,-1,-1,-2,1,1
1512715525846240,-2,-1,-1,-6,-3,-5,-1,-1
1512715525860254,-3,1,-3,-1,3,2,1,-1
1512715525860254,-1,-1,-1,1,-5,-5,-4,-4
1512715525869241,0,-3,4,0,1,3,-2,1
1512715525869241,-2,1,0,-1,0,-3,1,-1
1512715525875239,2,-1,0,0,0,3,-1,0
1512715525875239,-2,-1,-2,-2,-2,-4,-1,-1
1512715525890259,-1,1,-1,1,-4,-4,-5,-2
1512715525890259,-2,-1,-5,-2,1,3,4,0
1512715525897243,-1,-6,-2,0,-2,-1,4,1
1512715525897243,2,5,0,-3,-4,-4,-11,-3
1512715525912244,-1,-4,-1,-2,4,3,1,0
1512715525912244,1,2,2,0,-2,-5,-1,-2
1512715525920254,-3,-4,-1,-1,1,2,1,-2
1512715525920254,-1,-4,-1,-1,1,3,3,-1
1512715525929245,-2,-3,-3,0,-1,-5,-4,-2
1512715525929245,1,4,2,-2,-3,6,5,0
1512715525935248,-3,-3,-5,-4,-6,-5,-5,-2
1512715525935248,-1,2,3,-2,-1,0,0,3
1512715525950255,-3,-4,0,-1,0,3,0,-1
1512715525950255,-2,-2,0,-1,4,-2,-2,-2
1512715525957287,-2,-1,-1,-1,-4,-6,-2,-2
1512715525957287,-2,3,-3,-3,-9,-2,0,0
1512715525972382,1,0,-1,-1,2,-7,0,1
1512715525972382,0,0,-2,3,-12,-1,1,2
1512715525980265,-3,-2,0,0,5,-5,-6,-4
1512715525980265,0,-2,0,1,3,17,11,2
1512715525989253,-1,-2,-1,0,-6,-5,-1,-1
1512715525989253,0,-2,-2,-4,1,-2,0,-3
1512715525995263,-2,-1,-1,-1,-5,1,2,0
1512715525995263,0,-3,-2,-4,0,-6,-2,-1
1512715526010266,0,3,3,2,-3,1,0,2
1512715526010266,-2,2,0,-3,4,4,2,0
1512715526017252,-4,-5,-4,-1,1,3,0,-1
1512715526017252,-3,2,3,-2,-1,-7,-8,-4
1512715526032254,2,-5,-2,-2,-2,-2,0,0
1512715526032254,0,-2,-6,-4,-6,-9,0,-2
1512715526040267,2,0,1,4,13,10,-9,-2
1512715526040267,0,0,-3,-1,-1,-1,0,0
1512715526055255,-3,-1,2,-2,-3,-5,-4,-3
1512715526055255,-2,1,1,0,-2,-1,-2,-2
1512715526056254,-1,-4,-1,-2,-1,-1,4,1
1512715526056254,-2,1,-4,-2,0,1,-1,-3
1512715526070275,0,3,-2,-1,-4,-2,0,0
1512715526070275,0,-1,2,-1,-3,-8,-6,-1
1512715526077257,0,-10,-2,-1,2,9,2,2
1512715526077257,-2,4,0,-3,-3,-3,0,-1
1512715526092298,-3,-4,-1,-1,-3,2,0,-1
1512715526092298,-2,3,-1,2,1,-9,-2,-1
1512715526100259,-2,1,0,-4,-2,7,3,0
1512715526100259,-2,-4,-3,3,-2,-6,0,-3
1512715526115403,-3,-4,-5,-4,-1,-5,-5,-3
1512715526115403,2,-3,2,1,1,5,3,0
1512715526116261,-1,0,1,2,-4,-5,0,-2
1512715526116261,-1,-3,-2,-3,-1,-2,-5,-2
1512715526130262,0,3,-1,4,9,8,7,2
1512715526130262,-2,0,2,-1,2,0,0,-1
1512715526137263,-2,-1,-6,-5,-10,-7,0,1
1512715526137263,0,0,1,0,2,0,-2,-2
1512715526152281,-1,-3,-2,-1,0,-3,-5,-4
1512715526152281,-2,-1,0,-2,-5,-11,-6,-3
1512715526160266,2,7,3,-1,-1,10,1,0
1512715526160266,-1,-2,-1,0,1,-5,-1,1
