timestamp,emg1,emg2,emg3,emg4,emg5,emg6,emg7,emg8
68839573746,-2,-2,0,0,1,0,0,0
68839573746,-1,-2,-2,-1,-2,2,-2,-1
68839574463,-1,-2,-1,-1,-2,-1,0,-1
68839574463,-1,-1,0,-1,-2,-2,-1,-1
68839575251,0,0,-1,-1,-3,-3,-3,1
68839575251,-1,-1,1,0,-1,-1,0,-1
68839576142,-1,-2,-1,-1,-1,0,-2,-2
68839576142,-2,-2,-4,-1,3,2,0,0
68839587417,0,-3,-1,-1,-1,-3,0,-3
68839587417,-1,-2,-1,-1,-2,-1,-1,-1
68839595569,-2,1,-1,0,0,1,0,-1
68839595569,-1,0,-1,1,-1,0,-1,-1
68839602330,-2,0,-2,-4,-2,-2,-4,-2
68839602330,-1,-2,-1,-1,2,0,2,-1
68839616583,0,-3,-2,-2,-2,0,-1,-1
68839616583,1,-2,-1,-2,-2,-2,-1,-2
68839625925,-2,-2,-1,0,0,1,2,0
68839625925,0,2,2,1,1,-4,-4,-1
68839631568,0,-1,-2,-1,-3,-2,-2,-3
68839631568,-2,0,0,-2,-2,-1,-2,-2
68839647408,-1,-1,-2,-2,-3,-2,-3,0
68839647408,-1,0,-3,0,1,-1,1,0
68839655114,-1,-3,-2,-1,-1,-1,0,0
68839655114,-1,0,0,-1,-2,0,0,-2
68839694941,0,-2,-1,-2,-2,-3,0,-1
68839694941,-2,-1,2,0,-1,-1,-2,0
68839695714,-2,-2,-1,-2,-3,-1,-1,-1
68839695714,-3,-2,0,-1,3,2,1,-1
68839696525,-1,-1,0,0,0,0,-1,-1
68839696525,1,-1,-2,-1,-1,0,0,-1
68839699029,-1,-1,0,1,0,0,0,0
68839699029,-1,-1,-1,-2,-3,-4,-2,-1
68839707898,-1,-2,-2,-3,-4,-4,-2,0
68839707898,-1,-2,-2,0,1,1,1,-1
68839714010,0,-1,0,1,1,-3,-3,-2
68839714010,-1,-1,0,-2,-2,-3,-2,1
68839722992,-1,0,0,-1,0,0,0,-1
68839722992,0,-1,-1,-3,-3,-5,-5,0
68839736678,2,0,-1,0,0,-1,-1,-2
68839736678,-1,-1,-1,1,0,1,-1,-1
68839745422,-3,-1,-1,0,-3,0,-1,-1
68839745422,-2,1,-1,1,1,1,2,1
68839751620,-1,-2,-1,-3,-1,1,0,0
68839751620,1,-1,-2,-1,-1,-4,-3,0
68839768053,-1,0,0,-1,0,1,0,-1
68839768053,-2,0,0,-3,-2,1,-1,-1
68839774193,-1,-1,-1,1,0,0,-2,-1
68839774193,-1,0,-1,-2,-3,2,0,-2
68839782903,-1,0,-2,-2,-3,-2,-3,0
68839782903,-2,-2,0,-1,-2,-2,-2,-2
68839796520,-3,-1,-1,-3,-4,-4,0,0
68839796520,0,0,-1,-1,0,-1,-2,-2
68839805418,0,0,-1,2,3,2,1,-2
68839805418,0,-1,-1,0,-3,-3,-2,-1
68839811458,-2,-2,-3,1,-1,-1,-1,0
68839811458,-1,0,-2,-1,-1,0,1,-2
68839827997,-1,3,3,1,0,-1,-1,-1
68839827997,0,-1,-1,-4,-4,-2,-4,0
68839834200,-2,0,0,-1,0,-2,0,-1
68839834200,-2,-1,-1,-2,-3,-3,0,0
68839842840,0,-4,-1,-1,0,-2,-4,0
68839842840,1,-2,-1,0,1,1,1,-1
68839856522,1,2,1,-3,-3,-5,-6,-3
68839856522,-1,-1,0,-1,-2,1,4,-1
68839865520,-1,-2,-3,-2,-1,0,-2,0
68839865520,-1,-1,-1,-2,-1,-2,0,-2
68839871501,0,-1,0,0,2,1,-2,-1
68839871501,-1,-3,-1,0,-2,-1,-2,-2
68839887991,-2,0,-2,-2,0,0,0,-1
68839887991,-2,-2,-1,-1,-3,-2,-3,-4
68839894152,-3,-2,-2,-3,-3,-2,-1,0
68839894152,-1,-2,-1,1,4,4,2,1
68839902946,-1,0,-1,-2,-3,0,0,2
68839902946,-1,1,-2,1,-1,-1,-1,-1
68839916498,-1,0,-3,0,0,0,-1,-2
68839916498,0,0,1,-3,-1,-1,-1,-2
68839925499,-2,-1,0,-3,-2,0,0,-1
68839925499,-2,-3,-3,-2,-4,-5,-3,0
68839931472,-1,-1,-2,-1,2,3,-1,0
68839931472,-1,-1,0,1,0,-3,-4,0
68839947988,0,-1,-1,-1,-2,-2,0,-2
68839947988,0,0,0,-1,-1,-2,-7,-2
68839954133,0,-1,0,-2,0,-1,10,1
68839954133,-1,0,-1,-1,0,-2,-4,-1
68839962946,-1,-2,-1,-2,-1,-2,-1,0
68839962946,-1,-2,-1,-2,1,-4,-8,-2
68839976360,-1,-3,-1,1,-3,1,2,-1
68839976360,1,1,-1,-2,-2,-2,-1,0
68839985457,0,-3,-1,-1,-2,-3,-3,-1
68839985457,-2,0,-1,1,1,-2,-9,-2
68839991645,0,0,0,0,-1,-5,5,1
68839991645,-2,-1,0,0,1,7,7,2
68840007917,-1,-2,-1,0,-1,2,-8,-2
68840007917,-1,-1,0,-2,-1,2,9,1
68840013978,-3,-1,-1,-4,-5,-5,-8,-3
68840013978,-2,-1,0,-2,-5,-3,-3,-2
68840022939,-1,-1,-1,2,2,-1,-2,0
68840022939,1,1,-1,1,0,2,4,2
68840036594,-5,-3,-2,-1,-10,-4,-4,-1
68840036594,2,2,0,0,9,0,1,-1
68840045415,0,-2,-1,-1,-1,0,2,-1
68840045415,1,0,0,1,6,5,1,0
68840059003,1,0,-1,-3,-4,-3,3,-2
68840059003,-1,-3,-2,-1,-2,-4,-7,-2
68840067901,-4,0,-2,-4,-4,-3,3,-2
68840067901,-1,-5,-1,-2,-5,-4,3,3
68840073898,1,-1,-1,1,-2,-1,-9,-3
68840073898,-1,1,-3,-2,-2,-4,-6,-2
68840090383,1,1,1,-2,-1,0,3,-2
68840090383,-2,-2,0,0,1,-1,-2,-2
68840096535,-4,-1,0,-2,-2,-1,-4,0
68840096535,-5,-2,-5,2,-2,-1,0,0
68840105440,0,-2,-1,3,2,-1,-3,-3
68840105440,-3,-3,-6,-5,-9,-8,-9,-2
68840119164,1,1,1,0,5,3,-2,0
68840119164,-2,0,0,0,-2,1,4,-1
68840127948,1,2,1,0,-4,-3,2,0
68840127948,-3,-2,-5,-3,-1,-1,1,0
68840133990,-1,-1,-1,-2,0,1,2,1
68840133990,1,1,-1,-6,-8,-8,-6,-1
68840150424,-2,-1,4,3,-1,-1,-2,-2
68840150424,2,0,4,4,6,3,4,1
68840156625,0,0,0,1,5,1,-1,0
68840156625,0,-2,-1,-1,-2,1,-1,1
68840165416,-3,0,-3,-4,-9,-8,-7,-4
68840165416,-4,-1,1,-9,-7,-4,1,-3
68840179332,-1,-1,-4,2,10,5,0,0
68840179332,-2,-4,-2,-1,-3,-2,-6,-3
68840187934,0,-2,-3,-3,-4,-4,-2,0
68840187934,-1,0,-1,-2,-5,-1,-1,0
68840194153,-2,1,2,-1,-13,-8,-6,-5
68840194153,0,2,0,2,17,11,18,3
68840210449,1,-2,0,0,-1,4,-3,5
68840210449,0,-2,-7,4,11,6,0,0
68840216545,-1,-2,-1,-3,-7,-5,-3,-2
68840216545,-2,1,3,-4,-13,-11,-12,-5
68840225426,0,1,-1,-4,-8,-9,-2,-5
68840225426,-1,2,6,11,20,16,7,4
68840239012,-3,-5,-6,-1,4,3,-2,1
68840239012,-1,0,2,-1,-3,-1,0,-3
68840247956,-2,-1,-5,-4,-1,-6,-8,-5
68840247956,0,0,-1,-7,-17,-18,-19,-10
68840254183,-5,1,3,1,-2,11,22,13
68840254183,1,0,-1,5,16,10,-5,3
68840270454,1,-1,-1,5,5,5,0,3
68840270454,0,-2,-1,-3,-5,-7,-5,-3
68840276677,2,7,-1,-8,-5,-9,-7,-7
68840276677,-4,-9,-3,1,-9,-5,-1,-4
68840285447,-1,-8,-10,-9,4,2,-1,2
68840285447,-2,-3,-7,-8,-12,-4,5,-2
68840298956,-1,-3,-2,-7,5,-2,-9,-7
68840298956,2,8,11,26,32,1,0,2
68840307958,-1,-1,-5,1,-5,-1,1,-3
68840307958,-1,-1,6,26,-8,2,4,1
68840314184,0,-7,-15,-13,26,4,1,1
68840314184,-2,1,11,-1,-14,-5,-3,-4
68840329195,-2,-2,0,-5,1,0,1,-2
68840329195,1,4,0,-13,-16,-18,-10,-2
68840336507,0,-4,4,21,11,18,13,1
68840336507,-2,-3,-7,-11,-6,-3,-10,-1
68840345479,-2,0,5,8,11,8,4,0
68840345479,-1,-1,-2,-11,-16,-7,-2,-1
68840359270,-1,-3,-5,-9,-19,-14,-9,-6
68840359270,-2,-6,-4,-5,-7,-2,-1,-1
68840367937,1,2,1,1,0,2,7,2
68840367937,-1,-3,-8,-3,8,4,0,-2
68840374167,0,0,6,-7,-17,-9,-6,-2
68840374167,0,1,3,33,51,17,6,3
68840389156,-4,-2,-6,-24,-47,-15,-8,-5
68840389156,3,4,5,18,37,16,12,3
68840396599,2,-3,3,9,6,0,-2,0
68840396599,0,0,-4,-12,-21,-4,2,-2
68840405466,1,1,2,-2,-4,-3,0,-1
68840405466,-3,-1,5,-1,-1,-6,-4,-3
68840419184,-7,-13,-5,-7,-13,-6,-11,-5
68840419184,3,5,-7,-7,-4,11,23,6
68840427923,-2,-2,-1,6,10,0,-5,-4
68840427923,1,-1,5,-6,-7,0,1,2
68840434151,0,0,-13,-8,-3,-1,-2,-3
68840434151,1,-1,4,0,-13,-12,-7,-6
68840449104,-2,-4,-3,0,7,4,5,0
68840449104,1,0,-1,-1,-5,-4,-1,-1
68840456559,1,4,6,3,-1,5,3,2
68840456559,-4,-2,-8,-6,-9,-3,-6,-4
68840465476,1,6,2,-1,-8,-4,-3,-2
68840465476,-2,-1,-2,-10,-9,-5,-4,-3
68840479166,4,6,7,21,16,7,7,4
68840479166,-3,-9,-5,-20,-25,-7,-3,-2
68840487952,2,-1,1,-5,1,-6,-5,-2
68840487952,-3,-9,-9,-6,-1,3,3,-2
68840493911,-1,-1,-1,2,-2,-1,3,2
68840493911,-2,-2,1,-3,0,-5,-3,-2
68840508928,-1,1,-1,1,-2,3,1,1
68840508928,0,0,-3,-3,-5,-6,-5,-1
68840516582,2,5,9,10,13,-2,-2,-1
68840516582,-2,-3,-3,2,5,3,1,0
68840525468,0,0,0,-1,14,4,0,2
68840525468,-2,4,-2,-6,-13,-4,-1,-1
68840539133,-3,0,1,-4,-5,-2,-2,-4
68840539133,1,6,-3,-8,-19,-15,-9,-3
68840547984,-1,-3,-5,13,20,13,8,2
68840547984,0,0,6,12,13,7,5,2
68840553971,-4,-9,-8,-18,-23,-12,-8,-6
68840553971,0,-1,2,-5,2,-1,1,-2
68840569110,2,2,4,13,18,1,1,0
68840569110,0,0,0,-1,-3,0,-1,-1
68840576389,0,3,4,-3,-7,-7,-4,-1
68840576389,-1,0,-5,-11,-6,1,-2,0
68840585400,-6,-9,-5,5,8,-2,-3,-3
68840585400,1,3,-3,-3,2,-1,-1,1
68840599161,-2,1,0,-5,-6,-2,1,-1
68840599161,2,1,2,3,-1,-5,-4,1
68840608007,-1,-5,4,1,-11,-1,2,-1
68840608007,-1,-6,-2,-2,-1,-3,-1,-1
68840613971,0,-5,-2,-3,1,0,0,-1
68840613971,-1,-2,-2,1,-5,-4,-2,-1
68840629202,-3,-4,8,-7,-10,-5,-4,-2
68840629202,-1,-3,-4,-3,-1,1,1,0
68840636577,-1,1,2,9,1,7,6,2
68840636577,-4,-5,-6,-1,4,1,0,-1
68840645419,1,5,1,3,-2,-3,-2,0
68840645419,-2,-1,-5,-12,-8,-4,-4,-6
68840659231,0,7,4,3,-4,-2,-1,-1
68840659231,-1,-1,0,1,-5,1,-2,-2
68840667984,0,-1,-5,-6,0,-5,-4,-3
68840667984,-1,2,3,3,-5,-3,-2,0
68840682115,-1,-7,-2,0,6,-2,-2,-1
68840682115,-1,0,0,1,0,-2,-1,0
68840689177,-1,-2,-4,-8,-9,0,0,2
68840689177,0,-3,1,5,13,4,1,0
68840705489,-2,-2,-3,-2,0,-6,0,-1
68840705489,1,0,5,1,-7,-11,-8,-4
68840706936,0,1,-1,2,6,8,5,1
68840706936,-1,-1,0,2,-1,-3,2,0
68840719136,-4,-4,-7,-6,-6,-3,-3,-2
68840719136,-2,-2,0,-1,-1,-1,-1,-2
68840734057,-3,-2,-5,-1,-7,3,3,-1
68840734057,0,1,2,-1,1,-2,-3,0
68840742343,-1,1,2,9,14,7,3,-1
68840742343,-1,-1,-6,0,2,2,1,1
68840749160,2,2,-2,-9,-11,-9,-7,-2
68840749160,-2,-4,-2,5,-3,2,0,0
68840765500,2,1,1,2,10,-3,-3,-1
68840765500,-3,-6,-1,-2,6,8,6,2
68840766902,-1,-3,-1,-2,-5,-3,-5,-1
68840766902,-1,2,0,-2,-4,0,2,-2
68840779175,0,0,-3,-9,-13,-3,-3,-2
68840779175,-1,1,-2,2,2,4,1,0
68840788007,-1,1,-1,-3,-8,-11,-6,-1
68840788007,-3,-3,-3,-2,6,5,1,-1
68840802251,-2,-4,-4,-1,-7,-3,-3,-2
68840802251,0,0,-3,-2,-4,-8,-5,-3
68840809091,-1,1,-1,-9,-2,-4,0,-1
68840809091,-2,-2,1,7,-1,-1,-4,-2
68840825488,0,-3,-4,-5,0,-2,-1,0
68840825488,1,2,2,5,-2,5,4,1
68840826883,-2,-2,-5,0,7,0,-2,-1
68840826883,1,0,-3,-4,-5,-1,-3,-2
68840839168,-1,0,-2,-1,1,-2,-1,-2
68840839168,0,-1,0,-2,-1,-3,0,-2
68840847873,0,1,2,9,3,3,1,-1
68840847873,-2,-1,-5,-6,-4,-1,0,0
68840862162,0,-2,0,0,8,2,-1,0
68840862162,-1,-3,-7,-7,-7,-6,-3,-1
68840869192,0,-1,1,0,-1,3,3,0
68840869192,1,3,0,-2,-3,-6,-3,-3
68840885524,1,-2,1,7,1,-1,-1,-1
68840885524,1,-1,-1,-1,4,1,0,-1
68840886939,1,1,-2,-2,-6,-3,-1,-1
68840886939,-1,-5,-4,-8,-5,-7,-6,-3
68840899229,-1,1,-2,-2,0,3,0,-1
68840899229,-1,-1,2,-2,-4,-3,-1,0
68840907928,-5,-4,-5,-6,-5,-3,-4,-3
68840907928,0,1,1,5,5,2,2,2
68840922987,1,1,1,-6,-2,-3,-1,0
68840922987,0,0,-1,4,2,2,1,0
68840929136,-2,-4,-1,-5,-1,-1,-2,-3
68840929136,-1,-1,-1,0,-3,-4,-1,0
68840945357,-1,-1,0,6,4,2,1,-1
68840945357,-1,-1,-4,-11,0,-1,-1,-2
68840946886,-1,0,-1,11,-5,-5,-3,-4
68840946886,-3,-1,-1,-7,-4,5,2,-2
68840967851,-1,-1,-2,-5,-1,-5,-3,1
68840967851,-1,-2,0,-3,-8,-7,-4,-2
68840969444,3,0,0,-1,9,8,5,3
68840969444,-4,-5,-4,-4,-8,-3,-3,-3
68840982374,0,0,-4,-6,-13,-4,-4,-2
68840982374,-1,-1,0,-1,6,2,-1,0
68840988939,0,-3,0,-2,-5,-5,-1,0
68840988939,1,0,0,-1,10,4,5,-1
68841005327,-1,-2,-1,10,1,-3,-2,-2
68841005327,0,0,0,4,1,1,1,0
68841006901,-1,0,-1,-6,-8,-4,-3,-1
68841006901,1,1,-2,1,-2,-1,1,0
68841018918,-2,-2,-1,-8,0,1,-1,0
68841018918,-3,-1,-2,1,0,-2,-3,-3
68841027937,0,-1,0,-1,-4,-3,-4,0
68841027937,-1,0,1,0,3,1,-1,0
68841042310,0,0,0,-6,-17,-6,-3,0
68841042310,0,2,0,4,14,5,1,-1
68841048918,-2,-3,-2,-3,-1,1,2,-1
68841048918,0,0,0,0,-1,-4,-3,-2
68841065508,-2,-2,-1,3,3,-1,-1,-1
68841065508,-1,-2,-4,-9,-12,-5,-2,-1
68841066847,-1,-2,1,7,7,4,2,0
68841066847,-1,-4,-5,-1,1,2,0,1
68841079156,1,1,-1,0,-3,-2,-2,0
68841079156,0,0,0,-4,-9,-5,-3,-3
68841088031,0,0,-2,0,4,0,-2,-3
68841088031,2,0,0,-2,-8,-6,-4,0
68841102173,-1,-1,0,-4,-1,5,3,2
68841102173,-3,-2,-2,-1,-4,-3,-3,-2
68841109092,0,0,-1,4,7,-1,-1,0
68841109092,1,3,1,1,-5,-3,-5,-1
68841125462,0,0,1,5,7,2,0,-2
68841125462,-1,-2,-1,1,9,6,3,1
68841126868,-4,-1,-1,2,1,0,-1,-3
68841126868,-3,-3,1,-4,-8,-6,-6,-1
68841139123,-2,-2,-3,-4,-7,1,1,0
68841139123,1,-1,-3,1,2,-5,-4,-2
68841147930,0,-1,-1,-6,-3,2,-1,-1
68841147930,-1,-1,-3,1,-6,2,2,-2
68841162251,0,0,0,-3,11,4,3,0
68841162251,-1,-1,-1,-1,-4,-1,-1,0
68841169028,-2,0,-3,-4,-9,-9,-5,-2
68841169028,-1,-1,-3,2,10,12,8,1
68841185410,-2,-3,1,-4,-11,-2,-3,-2
68841185410,-1,-1,0,1,15,-1,-2,-1
68841186935,-1,-1,3,8,-2,-1,-2,0
68841186935,-2,-2,-3,0,7,2,1,-1
68841199215,0,0,-2,1,-4,-6,-4,-2
68841199215,-3,-2,-2,-7,-13,0,0,-2
68841207889,-1,0,-2,-3,2,-3,-3,-1
68841207889,-1,-2,1,-1,-4,-3,-2,-1
68841222198,0,-2,-6,-6,4,1,0,-2
68841222198,-2,-1,-1,-1,-7,-3,-3,-2
68841228949,-1,-2,0,-6,5,5,4,1
68841228949,-1,-1,-1,0,-6,-7,-3,-2
68841245558,-1,-3,-3,-6,-7,-3,1,-1
68841245558,-1,0,0,4,0,-1,-2,-1
68841246943,0,1,-2,2,0,-2,1,0
68841246943,1,-1,-2,-3,-7,-1,1,-1
68841259141,-2,0,2,-1,6,-2,-5,-1
68841259141,-2,-4,-1,1,4,3,2,0
68841267948,-1,-1,0,-2,-1,-1,-1,-2
68841267948,-1,-1,-2,-4,-4,0,2,0
68841282296,-1,-1,-2,0,1,-2,-1,0
68841282296,0,-1,1,0,-8,-1,-1,-1
68841289194,0,-2,-3,0,2,-1,-3,-1
68841289194,0,1,2,1,7,1,-1,0
68841304768,-2,-3,0,6,0,2,1,-1
68841304768,1,0,-1,0,0,0,-1,0
68841311579,-1,-2,-1,0,3,-2,0,-1
68841311579,-1,-1,-1,-7,-2,-5,-5,-2
68841319084,-1,-3,-1,12,2,1,0,-1
68841319084,1,-2,0,-3,-2,-1,0,1
68841327954,-2,-1,-2,-6,-13,-6,-5,-3
68841327954,-1,-3,-2,-1,7,3,0,0
68841342271,-1,2,0,-7,-5,-1,-1,0
68841342271,-2,-1,-3,4,-1,-4,-3,-1
68841349119,-2,-1,-2,-4,-12,-3,-3,-2
68841349119,-2,1,2,7,13,6,5,2
68841364788,1,0,0,0,2,0,-2,-2
68841364788,-1,-1,-2,-5,-2,-3,-2,-1
68841371569,0,-2,-4,-1,-3,-1,0,-2
68841371569,-1,0,0,-1,-10,-7,-2,-1
68841378978,0,0,-2,-4,-5,-5,-2,0
68841378978,-2,-2,-2,-4,5,2,3,-1
68841387963,1,0,1,2,-7,-6,-4,-1
68841387963,-2,-3,0,8,14,6,2,-1
68841402100,-1,-2,-2,0,-2,0,2,0
68841402100,-1,1,-2,-5,-8,-8,-5,-3
68841408955,-1,-3,0,2,6,4,3,1
68841408955,-3,-3,-1,3,2,2,-2,-2
68841424843,-1,1,-4,0,-3,-2,-1,0
68841424843,-2,-4,-2,-4,-7,-3,-3,-3
68841431699,0,1,3,5,-1,1,0,-1
68841431699,0,-1,-1,-2,19,0,-1,-1
68841439109,-1,-1,-2,-3,-4,-4,-3,-1
68841439109,-1,2,1,-6,-5,1,0,0
68841447910,-2,-2,-3,4,-4,-1,0,0
68841447910,-1,5,1,2,0,-2,-1,0
68841462377,-3,-5,-3,-4,-5,-2,-2,-1
68841462377,0,1,-1,1,3,2,1,0
68841476591,-2,-1,-5,-10,-8,-3,-1,-1
68841476591,-1,-3,2,2,0,2,3,2
68841484905,-1,0,1,1,4,2,3,0
68841484905,-2,-1,-2,2,-1,-3,-4,-1
68841491602,-2,-3,-4,-8,-1,-1,0,-2
68841491602,-1,-2,-5,-6,-17,-6,-3,-3
68841508051,0,-2,-1,-1,0,-7,-4,0
68841508051,-1,-4,2,5,4,7,4,1
68841509444,-1,-2,-1,0,10,1,-1,-1
68841509444,-1,-2,-1,-7,-7,-2,-3,-2
68841522307,0,-2,-2,4,-8,-3,-3,-2
68841522307,0,1,-1,1,1,1,4,1
68841529136,-2,-3,-1,-6,-6,-1,-4,-2
68841529136,-3,-4,-4,-6,-7,-1,-2,-2
68841544698,-2,1,-1,-4,-5,-2,-3,-2
68841544698,-2,-1,-2,1,6,0,0,0
68841551413,0,1,-1,-2,3,1,-2,0
68841551413,-1,-2,-4,-3,-6,-4,-2,-3
68841567870,-1,1,1,1,-6,-4,0,-1
68841567870,-1,-3,-2,-3,-2,-4,-2,-3
68841569375,-2,-2,-6,-9,-2,-1,2,1
68841569375,0,2,3,6,0,-1,-4,-2
68841582241,-2,-3,-3,-5,-1,-2,-2,-1
68841582241,0,0,-1,-1,-2,-2,-3,-3
68841588964,-1,-1,0,0,-3,1,1,1
68841588964,1,0,-1,-1,-4,-4,-1,1
68841604621,0,0,1,1,7,3,0,1
68841604621,1,-3,-1,-2,-9,-4,-2,-1
