timestamp,emg1,emg2,emg3,emg4,emg5,emg6,emg7,emg8
68662447402,-1,-2,-2,-1,1,1,0,-2
68662447402,-2,-3,0,-1,-1,-3,-3,-1
68662448181,-1,0,-2,-3,-1,-2,-1,0
68662448181,-1,0,0,-1,-1,-3,-1,0
68662449136,0,1,-3,-3,-4,-4,-3,0
68662449136,-3,-2,4,0,0,1,-1,-2
68662452728,2,-1,-3,-1,1,0,-1,-1
68662452728,0,-1,-1,-1,-1,0,-1,-2
68662459909,-1,0,-1,-1,0,-4,-1,0
68662459909,0,1,-4,-2,2,1,3,1
68662471334,-3,-2,1,-2,-7,-8,-5,-4
68662471334,1,-1,0,1,3,1,-1,0
68662474836,-1,-2,3,2,-1,0,-1,-1
68662474836,-1,0,-3,-8,-2,-2,-2,-1
68662491151,-1,-1,-2,5,3,4,3,0
68662491151,-5,-2,-5,-7,-5,-2,-5,-3
68662498498,-1,-1,2,-2,-4,-4,-2,-2
68662498498,0,-1,1,2,0,-1,-3,-2
68662506200,0,-2,-1,0,2,2,1,-1
68662506200,-1,-2,1,-2,-6,-4,-4,-1
68662519977,0,-1,-2,2,9,3,1,-1
68662519977,-1,-1,-4,-2,-2,1,3,0
68662529874,-2,-1,-1,-5,-3,-1,-4,-1
68662529874,1,-1,-2,0,-1,-5,0,0
68662567351,-1,-1,-1,0,0,0,-1,-1
68662567351,1,-3,0,0,0,-1,-2,-1
68662567984,-1,-2,-2,-3,-2,-3,-2,-1
68662567984,-2,1,-1,0,-2,-2,0,-1
68662568949,-2,0,-3,0,0,1,-1,-1
68662568949,-1,0,-2,-3,-4,-1,-2,-2
68662571921,-2,-1,2,2,1,0,-2,-2
68662571921,1,-2,-2,1,4,-1,0,1
68662579625,0,-1,2,-1,-3,-2,0,-1
68662579625,-3,0,0,0,-3,-2,1,-1
68662588564,0,0,-3,-1,-2,1,0,0
68662588564,0,-1,-3,-3,-6,-2,-3,-1
68662594429,-1,-3,-4,-2,-3,-4,-1,-2
68662594429,0,-1,-7,-3,1,-2,0,0
68662610973,-3,-2,7,3,-5,-3,-1,-2
68662610973,-1,1,7,2,-2,-2,-2,-2
68662617078,1,0,-2,0,-1,-1,0,0
68662617078,-2,-1,-4,-4,-2,-2,-1,-1
68662626029,0,-1,-4,1,3,2,1,-1
68662626029,1,1,-4,-1,3,0,-2,0
68662639773,-1,-1,0,-3,-3,-3,-3,-2
68662639773,-2,0,-2,1,2,2,2,0
68662648497,2,1,-13,-8,-2,-1,1,0
68662648497,-4,-3,17,11,2,-1,-1,-2
68662654627,0,-1,-5,-4,-3,-3,-2,-2
68662654627,0,-3,0,0,-1,1,-1,-1
68662671008,1,-1,-3,-1,0,-2,-2,1
68662671008,-1,-1,-6,0,3,3,1,-1
68662677146,-4,-1,7,-1,0,-2,-2,-2
68662677146,-1,0,-2,0,-2,-2,-2,-1
68662685965,-2,-2,-3,-6,-5,-3,-2,0
68662685965,0,1,-5,-1,-2,-3,-4,-2
68662699631,-2,-1,2,0,-5,-3,-1,-2
68662699631,-1,-1,-1,-2,7,4,2,-1
68662708503,1,0,2,-3,-1,-3,-2,-2
68662708503,-1,-4,-6,-5,-2,-2,1,-3
68662714565,-1,-1,-5,4,1,2,-2,-1
68662714565,-2,-1,2,-1,-4,-1,-1,-2
68662731029,0,-1,5,4,-1,1,0,-2
68662731029,-2,-1,-2,-4,-3,-2,-2,0
68662737051,1,0,0,-3,-3,-1,-3,-1
68662737051,1,0,-2,2,-1,-3,0,0
68662745977,-1,-2,-9,-5,-3,0,0,-1
68662745977,0,0,18,10,1,0,-1,-2
68662759543,1,-1,-4,-2,4,2,0,-1
68662759543,2,0,2,1,0,0,-2,-1
68662768473,-2,-1,-4,-5,-10,-6,-6,-3
68662768473,-2,-4,-9,-5,-7,-1,0,-1
68662774731,1,0,-1,-3,5,-1,0,0
68662774731,-4,-3,16,10,-7,-6,-5,-3
68662789500,-2,-1,-3,-3,-3,-6,-5,-2
68662789500,-2,-2,-4,2,5,4,2,0
68662797130,2,3,-4,-7,1,4,4,2
68662797130,0,-3,1,7,3,0,-5,-2
68662812095,-2,-2,1,1,7,2,2,0
68662812095,-3,-1,-4,-10,-13,-8,-2,-3
68662819614,0,3,11,1,-10,-2,0,5
68662819614,1,-3,-19,12,42,8,1,-1
68662828459,0,-1,4,4,1,3,3,2
68662828459,1,2,-17,-16,-3,-4,-3,-2
68662834640,-3,-3,11,0,-29,-4,0,-3
68662834640,-3,1,6,7,-4,0,1,-1
68662849690,-1,0,-5,-19,-20,-11,-6,-5
68662849690,5,2,5,37,53,25,13,8
68662857081,-3,-1,-9,-12,2,-1,-2,-3
68662857081,0,1,0,-3,-3,4,2,3
68662872165,-4,-3,4,-21,-34,-13,-6,-5
68662872165,0,-1,-6,22,34,4,0,0
68662879701,-1,-1,8,13,18,-4,-1,-2
68662879701,-1,1,-4,-7,-18,-7,-2,-4
68662888540,0,1,5,-4,5,5,-2,4
68662888540,-1,-3,7,-6,7,-5,-5,-6
68662894609,-1,5,-10,-8,-21,-7,-5,-9
68662894609,4,11,35,-57,-13,-1,2,8
68662909679,-1,-12,-31,75,42,7,-8,2
68662909679,-1,2,20,-5,-6,-11,-6,-4
68662917003,1,-4,3,-48,8,6,-1,-1
68662917003,-17,0,-8,25,-60,-38,-17,-26
68662932051,18,13,24,91,38,65,28,20
68662932051,7,0,-5,4,7,18,3,11
68662939536,-2,-8,-15,31,-36,-16,-6,-1
68662939536,-8,-12,12,-51,-49,-12,-11,-9
68662948541,-5,-2,-6,-49,12,-13,-1,-6
68662948541,-3,2,-5,13,-4,-8,-4,-5
68662954548,3,4,-2,0,6,11,8,7
68662954548,1,-1,-14,9,25,12,7,6
68662970994,-4,-8,-15,-23,-24,-19,-5,-2
68662970994,-3,4,35,-8,-20,-2,-4,-4
68662976986,-4,-6,-31,-26,-8,-10,-2,-2
68662976986,2,-2,-6,21,25,4,-10,0
68662992151,-4,2,8,-2,15,4,7,-1
68662992151,4,-4,-14,-27,-44,-17,5,3
68662999525,2,-2,6,7,16,6,1,0
68662999525,1,-3,-5,18,10,1,1,1
68663008525,-2,0,6,-11,-12,-1,-5,-4
68663008525,-6,-4,-16,-20,-11,-5,-3,-5
68663014585,-3,-1,22,32,3,1,-2,-3
68663014585,5,2,1,0,5,3,3,4
68663030990,-4,-4,-9,-31,-29,-17,-7,-6
68663030990,-3,-4,-13,-1,-5,-2,0,-1
68663037044,-3,-1,5,13,18,8,2,1
68663037044,-1,0,-11,-5,-11,-5,-2,-1
68663052119,1,2,16,-2,17,4,2,-2
68663052119,0,-1,5,5,-6,-1,-1,-1
68663059691,1,0,-6,-4,-12,-4,-5,-1
68663059691,-2,-3,-4,-7,-20,1,2,0
68663068471,-4,-1,-10,-8,9,-8,-4,-4
68663068471,-2,2,7,-12,-16,4,3,0
68663074485,-5,-7,2,5,1,-5,-7,-2
68663074485,-1,0,-3,-5,5,-2,1,-2
68663090949,-1,-1,0,2,-4,2,3,0
68663090949,-3,-4,-5,-14,-16,-8,-7,-4
68663097146,0,5,8,23,34,7,3,-1
68663097146,-1,-3,-18,-4,2,2,4,3
68663112099,-1,-3,0,-18,-37,-14,-10,-3
68663112099,-2,-2,-4,12,21,8,2,-2
68663119775,-1,1,-6,-13,6,0,-1,0
68663119775,1,0,14,3,-16,-3,-2,1
68663128644,-1,3,0,24,31,3,1,-1
68663128644,-2,-4,-2,-6,-7,-3,-2,0
68663142195,-1,-4,-4,-2,-3,0,0,-1
68663142195,1,-1,-2,0,-4,2,0,-2
68663150986,-1,1,0,-6,-15,-3,-2,-1
68663150986,0,-2,-6,-17,-8,-2,-2,1
68663157190,0,-2,1,12,14,0,-2,-1
68663157190,0,1,-3,6,17,2,-1,-3
68663172137,-3,2,6,-8,-28,-3,1,-1
68663172137,-2,-6,-16,-14,5,-5,-5,-3
68663179540,0,2,-6,-25,-38,-8,-2,1
68663179540,-1,-3,-4,24,10,0,0,1
68663188466,0,2,2,-4,-2,-3,-4,-3
68663188466,-1,-2,6,8,-10,-5,-2,-4
68663201934,-2,1,-7,-8,-5,0,2,0
68663201934,0,-2,-1,5,10,0,-2,0
68663210965,0,1,-4,-12,-19,-6,-3,-2
68663210965,-2,-1,7,3,5,0,-1,3
68663217087,-1,-2,-10,11,15,4,-1,-2
68663217087,1,1,1,-4,3,3,0,1
68663231955,-3,-4,2,-3,-12,-1,-2,-4
68663231955,0,0,1,13,23,0,-2,-2
68663239616,1,-1,-14,9,-11,-6,0,2
68663239616,-1,-3,-1,-6,5,3,0,0
68663248510,1,3,-14,4,19,5,1,1
68663248510,0,-4,13,20,-2,1,-2,-3
68663262103,-1,0,0,-13,-16,-5,-2,-3
68663262103,-2,-1,-1,-8,-13,-2,-2,-2
68663271038,0,0,-7,2,14,1,-1,0
68663271038,-1,0,-7,-4,-4,0,0,-1
68663277145,-1,-2,7,-3,4,1,-1,-3
68663277145,0,1,4,-5,0,1,0,-3
68663292199,-1,-6,1,-6,-1,-4,-1,-2
68663292199,-2,1,-10,-11,-13,-4,-3,-2
68663299618,-2,-1,14,9,8,4,0,0
68663299618,0,-2,-6,-10,-2,-4,-3,-1
68663308517,-2,-1,6,3,-8,-2,0,-1
68663308517,0,-1,-5,-9,-9,-5,-2,-2
68663322081,-1,-1,-6,4,-9,-1,2,0
68663322081,-1,-1,0,-9,18,3,2,0
68663331037,1,0,4,12,3,2,1,-1
68663331037,-1,-2,-9,-5,-23,-3,-2,-1
68663337111,-1,0,1,1,12,2,2,1
68663337111,-3,-2,-3,-2,-8,-1,-1,1
68663352020,-2,-3,2,-1,16,2,-1,0
68663352020,0,-1,4,1,-3,-1,-1,-2
68663359719,0,1,-2,-10,-8,-7,-4,-3
68663359719,-3,-2,2,-2,-10,0,-1,-1
68663368628,0,-1,2,1,7,0,-1,-2
68663368628,-2,-1,-11,8,18,2,0,0
68663382799,0,-3,3,-7,4,-2,-2,-1
68663382799,1,2,-4,0,-2,-1,0,-2
68663389679,-2,-1,4,-3,-13,-5,-2,-1
68663389679,0,-1,0,-7,8,3,3,0
68663397164,1,1,-1,-8,-5,1,-2,0
68663397164,0,-1,-4,3,-2,0,1,0
68663411976,-2,-3,-2,13,0,-5,-3,-1
68663411976,-1,1,3,-5,-7,0,-1,-1
68663419414,-3,0,2,0,-3,-1,0,-3
68663419414,1,0,6,-7,-3,-3,-1,0
68663428563,-1,-3,-16,-5,-2,1,-1,-2
68663428563,-3,-3,2,-5,-14,-3,-2,0
68663442879,0,-1,4,20,12,2,1,-1
68663442879,0,0,-3,-1,8,0,-1,-1
68663449592,0,-3,10,8,-20,-3,0,-2
68663449592,0,1,-3,-12,27,7,1,0
68663457114,-1,-2,-4,3,-11,-3,-3,0
68663457114,0,-2,0,-1,-3,-2,0,0
68663472157,1,0,4,-3,-7,1,1,0
68663472157,0,0,2,-2,-8,-3,-1,-1
68663479622,-1,-2,-1,-4,6,-1,-1,-2
68663479622,-1,-2,-3,2,3,-3,-3,-3
68663488570,-2,-1,3,-3,-1,-2,-3,-2
68663488570,-1,-2,-1,4,-3,-3,-2,-2
68663502833,-1,-1,-2,-6,-4,-1,-4,-2
68663502833,0,-2,0,-9,-14,-2,1,1
68663509491,0,2,5,12,43,6,1,1
68663509491,-1,0,-4,2,-7,-3,-1,-2
68663516966,-1,0,-4,-10,-4,-3,-3,0
68663516966,-3,-1,4,10,2,-2,-2,-2
68663532020,0,0,-6,-21,-30,-3,0,-1
68663532020,1,2,10,36,57,3,-1,0
68663539437,-1,0,1,8,20,8,3,-2
68663539437,-1,0,-2,-4,-1,-3,-2,-1
68663554704,-3,-2,-4,-4,-3,0,2,-2
68663554704,-1,0,-5,-12,-23,-6,-6,-1
68663562636,0,0,0,-6,-12,-1,0,-1
68663562636,-3,-2,-3,0,-14,-3,-2,-1
68663577790,1,1,-2,13,33,6,2,0
68663577790,-1,-2,-2,-10,-17,-2,0,-1
68663578540,-2,-3,-8,0,-3,-3,-1,0
68663578540,-1,0,-5,-8,-6,-2,-5,-3
68663592000,-1,-3,-4,-11,-19,-3,-3,1
68663592000,-2,-2,-3,4,9,5,2,1
68663599648,-2,2,2,-1,-1,-4,-2,1
68663599648,0,0,-1,1,6,4,2,-1
68663614701,0,1,0,-3,2,-1,-2,-4
68663614701,-1,-2,-5,3,3,-2,0,0
68663622785,0,-1,1,-8,-19,-1,1,-1
68663622785,1,1,0,8,20,3,2,0
68663637648,-1,-1,-3,-10,-8,-3,-2,0
68663637648,0,-2,-1,2,-7,-2,-2,-3
68663638384,0,-2,1,-10,-18,-6,-4,-3
68663638384,2,0,1,-10,-14,-3,-2,1
68663652047,-1,-1,-2,8,10,-1,-1,-1
68663652047,-3,-1,0,0,-23,-3,0,-2
68663659539,-1,-1,-6,1,18,3,-1,0
68663659539,-1,-1,2,0,1,-2,-2,-2
68663674605,1,-1,-4,-6,-12,-2,-1,0
68663674605,-2,-1,-3,-8,-19,-5,0,-1
68663682796,-1,-2,6,6,15,2,1,-1
68663682796,-4,0,-1,-7,-11,-5,-3,-1
68663697807,0,1,-1,7,10,1,0,-1
68663697807,-1,0,-3,-11,-9,-1,1,1
68663698654,0,1,-1,1,8,3,1,0
68663698654,0,-2,1,3,9,5,5,3
68663711914,0,1,6,10,11,3,1,-1
68663711914,0,-2,-12,-10,-2,-1,-4,-3
68663719528,-2,-2,-6,0,3,-4,-3,-2
68663719528,-3,-2,-3,-3,-5,-3,-3,-1
68663734431,-1,-1,-2,-4,-9,-2,0,0
68663734431,1,0,1,1,0,0,1,0
68663742714,-3,-2,-4,-14,-13,-1,1,-1
68663742714,-2,-1,-3,1,-2,-1,0,-1
68663757636,-4,-3,-5,-12,-8,-5,-3,-1
68663757636,0,-1,4,9,11,4,-1,0
68663758417,-1,-2,0,-4,-10,-4,-3,-2
68663758417,-1,0,-1,1,-8,-3,1,-1
68663772088,0,-1,-4,-7,7,4,3,1
68663772088,0,-1,0,-16,-19,-1,-2,0
68663779440,-1,-1,-4,27,27,2,0,-1
68663779440,-1,0,-1,-2,-6,-4,-3,-2
68663794511,-1,-2,-2,-6,-10,-3,-2,-2
68663794511,-1,-1,-2,6,16,-2,-2,-2
68663802657,-1,-2,0,-7,-11,0,1,0
68663802657,0,0,2,4,6,2,-1,-1
68663817605,-2,-1,-3,3,-8,-5,-1,-2
68663817605,-2,-1,-1,1,-2,2,2,1
68663818391,-1,-2,-4,-17,-22,-7,-3,-3
68663818391,0,0,7,13,31,2,1,-1
68663831952,-2,-3,-3,-7,-15,-4,-3,-2
68663831952,0,0,4,1,-2,-4,-3,0
68663839486,-2,-3,-4,-12,-11,-1,-1,-2
68663839486,0,-1,-2,3,0,0,0,-2
68663854482,0,-2,-3,-14,-8,2,0,0
68663854482,-1,-1,0,9,16,-1,-2,0
68663862594,-1,-3,-4,-5,-13,-3,-1,-1
68663862594,-1,-2,-6,-9,-14,-4,-4,0
68663877648,-1,-2,2,10,8,0,-2,-1
68663877648,-2,-1,-5,-1,-12,0,-1,-1
68663878384,0,1,2,-3,-1,0,-3,1
68663878384,-2,-3,-3,-2,-4,-1,0,-2
68663891944,0,1,0,2,1,0,0,0
68663891944,1,-2,3,1,-3,0,0,1
68663899507,-2,-1,-1,-2,-4,-1,1,0
68663899507,0,-1,-2,-7,2,1,-1,1
68663914506,-1,0,2,16,17,6,1,-1
68663914506,-2,-1,-1,-6,-6,-1,-1,-3
68663922654,-1,0,0,-4,-10,-3,-1,0
68663922654,-1,-2,-3,0,10,0,0,-1
68663937608,0,-4,-4,-6,-5,0,2,1
68663937608,-1,0,1,0,2,2,0,-2
68663938421,-1,-1,6,0,0,0,-2,-1
68663938421,-1,-2,-12,-2,-5,-2,-3,0
68663951896,-3,-1,-2,-9,-21,-6,-4,-2
68663951896,0,-2,4,2,20,1,-1,-1
68663959662,0,-2,0,1,0,-2,-1,1
68663959662,1,0,3,5,-1,-1,2,-2
68663974631,0,2,-2,3,10,0,0,0
68663974631,-2,-1,-6,-8,-10,-3,-1,0
68663982950,0,0,-2,4,10,0,1,-2
68663982950,-1,-2,-1,-6,-4,0,-1,-1
68663997832,0,-2,0,6,3,-2,-3,-2
68663997832,-1,-2,3,6,-4,-6,-2,-2
68663998471,-2,0,-1,2,1,-1,-2,-2
68663998471,0,0,-5,-4,13,3,0,-2
68664012169,-3,-2,5,-13,-21,-2,-1,-2
68664012169,1,-1,-1,25,29,5,0,-2
68664019721,0,0,0,-1,-4,-3,-3,1
68664019721,-2,0,0,-3,-8,-4,-3,-1
68664034722,-1,-3,-11,-6,-5,-4,-1,-1
68664034722,-1,0,-2,-16,-5,-2,-1,-2
68664042672,-2,-1,3,6,0,4,1,0
68664042672,-1,-2,-1,3,-7,-1,-2,-2
68664057203,-1,-3,-2,-2,8,0,-1,-1
68664057203,-2,1,-1,-4,-15,-3,-1,-1
68664065370,0,-2,-5,-9,-3,-5,-2,-2
68664065370,0,0,2,0,2,-2,-1,1
68664072121,-3,-1,1,-1,3,1,0,0
68664072121,-3,-2,-6,-16,-17,-1,0,0
68664079699,1,1,-1,13,23,2,-2,-1
68664079699,-1,-1,-1,0,-13,-1,1,-1
68664094763,0,0,7,-3,-4,-2,0,0
68664094763,-2,-2,-12,0,13,-6,-6,-1
68664102692,1,1,-1,-7,-8,2,1,0
68664102692,0,-2,5,7,1,-2,-2,0
68664117175,0,-1,-3,-1,-2,1,0,-2
68664117175,0,-2,2,-7,-12,-1,0,-1
68664125446,-1,-2,-3,1,5,0,0,-3
68664125446,-1,-3,-3,-6,-7,-3,-3,-1
68664132026,1,4,6,10,8,2,0,0
68664132026,0,-1,1,-9,-12,-1,0,-2
68664139759,-3,1,-2,5,-5,-5,-3,-3
68664139759,-1,1,0,-3,2,3,2,0
68664154791,-1,-3,-5,-3,-5,-2,-2,1
68664154791,-2,-2,1,-1,-1,-1,0,1
68664162783,-1,-3,-1,-3,-5,-6,-1,-1
68664162783,-2,-2,0,-6,-11,-3,-3,-3
68664177239,0,0,1,-3,1,2,-1,-1
68664177239,0,0,1,17,16,-2,0,2
68664185405,-2,-2,1,-3,9,3,-1,-1
68664185405,0,-2,-3,-1,1,0,-1,1
68664192198,0,-2,-2,0,1,-4,-2,-2
68664192198,0,-3,-1,-9,-16,-2,-1,-1
68664199801,-1,1,-2,-3,-12,-2,-2,-1
68664199801,1,2,2,5,11,2,0,-1
68664214709,-1,-1,3,4,-3,-4,-2,-1
68664214709,-1,-1,-2,0,8,6,3,0
68664222902,-2,-2,-4,-10,-15,-2,0,0
68664222902,-3,-3,-2,-5,-3,-4,0,-1
68664237204,-1,-3,-3,-6,-5,-5,-3,-2
68664237204,-1,0,-2,3,-3,-3,-1,-3
68664245211,0,-1,-3,-8,9,5,3,0
68664245211,-1,2,5,4,3,-3,-1,-2
68664260365,-2,-1,-2,3,1,-2,-3,0
68664260365,-2,-1,0,-1,0,1,0,-2
68664260973,-1,-1,-2,-4,-10,-5,-2,-1
68664260973,0,0,1,4,7,1,-1,0
68664274815,0,-1,1,-4,-10,-3,0,-2
68664274815,1,0,1,7,12,0,-1,0
68664282902,0,0,1,3,-7,0,-2,0
68664282902,0,-1,-5,-4,6,1,-3,-3
68664297258,-2,-1,-2,-3,-9,-2,-2,-1
68664297258,0,1,-1,-7,-3,2,2,0
68664305354,-3,-3,0,6,7,-1,-1,-1
68664305354,-1,-1,-4,-1,-6,-2,-1,1
68664320577,0,-1,-7,-9,-5,-1,0,1
68664320577,-2,-1,1,0,-7,-4,-3,-2
68664321138,-1,-2,7,11,13,1,-1,0
68664321138,-1,-3,-15,-2,-14,-4,0,-1
68664334810,-2,-1,3,4,26,6,2,0
68664334810,1,0,-1,9,8,2,1,1
68664342927,-1,-1,1,-5,-3,-2,-4,-2
68664342927,-3,-1,5,-4,-10,-3,-2,-3
68664356952,1,1,-1,10,11,-2,-3,0
68664356952,-1,-1,-6,-10,-3,1,-1,1
68664365080,-1,0,-1,3,-6,-3,1,-1
68664365080,1,0,-3,2,8,1,-1,0
68664380118,-2,3,3,-7,2,0,-1,-3
68664380118,0,0,5,4,-6,-5,-4,-4
68664380903,-3,-2,-5,-9,-3,-1,0,-1
68664380903,-1,-2,-3,3,0,-2,-2,-1
