timestamp,emg1,emg2,emg3,emg4,emg5,emg6,emg7,emg8
68476816274,0,-2,-2,-1,-2,-1,0,1
68476816274,1,0,1,0,0,1,0,4
68476817069,0,-1,-1,-3,1,0,1,2
68476817069,0,-2,-1,-2,-4,-2,4,1
68476818029,-1,-2,-1,0,0,0,-2,-1
68476818029,-2,0,-1,-1,-3,-2,-1,-2
68476821498,-1,-3,-2,-2,-4,-1,-2,-1
68476821498,0,0,-2,0,-2,-1,-1,3
68476827859,-2,-1,-1,-1,6,-1,0,-6
68476827859,-2,0,-1,-3,-3,1,-2,-2
68476837326,0,2,2,1,-2,-2,-3,-1
68476837326,0,-3,-1,-3,0,-1,-2,-2
68476842989,0,1,0,-1,-5,-3,-1,-2
68476842989,-2,-3,-2,0,6,5,2,0
68476858598,2,1,-1,-1,0,0,0,-2
68476858598,-1,-1,-1,-2,-6,-4,-2,-2
68476866476,-1,-1,0,-2,-2,-2,0,1
68476866476,-1,-3,-1,-2,-1,-4,0,-2
68476872998,-1,-1,0,0,-3,1,2,-2
68476872998,-1,-1,-2,-2,0,0,-4,-1
68476888115,-1,-1,-2,0,-3,-1,-4,-1
68476888115,0,0,-2,-2,-4,-4,-2,-1
68476896444,-3,-2,-1,1,3,1,0,0
68476896444,-1,-1,0,1,6,1,-4,-4
68476936051,2,0,-1,-2,-4,-2,0,-3
68476936051,-2,-1,-2,-1,-2,2,0,-1
68476936872,-1,-1,0,-1,-3,-1,0,-2
68476936872,-1,-2,-1,-3,-7,-2,-1,0
68476937664,0,-2,-2,-2,9,4,1,-1
68476937664,1,0,-1,-2,-1,-3,-3,-1
68476940827,-1,-3,-1,0,-2,-4,0,-1
68476940827,-2,-2,-1,-1,3,3,-1,-1
68476947693,-4,1,0,0,-5,-4,-1,0
68476947693,0,-1,1,-3,-4,-3,-2,-2
68476955991,0,0,0,1,5,3,0,0
68476955991,0,0,-2,-2,-4,-4,-1,-1
68476962749,-2,-1,-1,-2,0,1,-2,-1
68476962749,-2,-2,-2,2,0,1,-1,0
68476978491,0,2,-2,-3,-5,-4,-3,-1
68476978491,0,0,-2,1,2,-1,0,-1
68476985149,-2,-1,-2,-3,-7,-4,-2,-2
68476985149,1,-1,0,-1,2,0,0,-1
68476992801,1,-2,-2,-1,1,0,-3,0
68476992801,0,-1,-1,2,-3,-1,-3,-2
68477007737,0,1,0,-1,-1,-2,-1,-1
68477007737,-2,0,-1,1,-4,2,1,-1
68477016020,-1,-2,0,-1,7,-1,-1,2
68477016020,-1,-4,-1,-1,-1,0,-1,-2
68477022770,-1,-1,0,0,-2,-3,-3,-2
68477022770,-1,-1,-1,0,0,1,3,2
68477038414,-2,-1,-2,1,-4,0,-2,-1
68477038414,0,1,0,-1,-4,-4,1,-1
68477045304,-1,-2,-1,1,4,1,-4,0
68477045304,1,-1,0,-2,-1,1,0,0
68477052610,0,-1,-2,0,-2,0,-1,-1
68477052610,-1,-1,-3,-3,0,-2,-2,0
68477067703,-2,-1,0,0,-5,1,2,-1
68477067703,0,-1,-1,-2,5,-3,-4,-2
68477075971,-2,-1,0,-1,-5,-2,-3,-1
68477075971,-1,-1,-1,0,-3,-2,-1,-2
68477082771,0,-2,-1,-1,3,3,1,0
68477082771,-1,-1,-1,-2,-3,-2,-2,-1
68477098272,1,0,-1,-2,-1,-3,-1,-3
68477098272,-1,-1,2,-1,-6,0,-1,0
68477105300,0,0,-2,0,2,-1,-3,1
68477105300,-1,-1,-2,-2,-1,-2,2,-1
68477112595,-1,-1,-3,-2,-1,-1,0,-2
68477112595,-1,-2,0,0,1,0,-2,0
68477127793,2,0,0,-3,-1,-2,0,-2
68477127793,-1,0,0,1,-1,-2,-4,-1
68477135979,-1,1,-1,-1,-4,0,0,0
68477135979,0,-1,-1,-2,-2,-3,2,-2
68477142782,0,-1,0,4,2,2,0,0
68477142782,-2,0,-1,2,1,0,0,0
68477158439,-2,-2,-2,-2,0,0,-2,-3
68477158439,0,2,-1,0,-1,0,-2,0
68477165266,-2,-2,-3,-2,-3,-4,-3,-1
68477165266,-1,-1,-1,-3,-7,-4,-5,-3
68477172597,-1,0,1,0,2,3,3,1
68477172597,-2,-2,-2,-1,-1,0,-2,-1
68477187621,0,1,0,-3,0,0,0,1
68477187621,-1,-2,-2,-2,-5,-3,-3,-1
68477195810,-1,0,-1,-2,-1,-1,0,0
68477195810,-1,-2,0,-2,2,-1,-2,0
68477202587,-1,0,-2,-3,-5,-3,-1,0
68477202587,0,0,0,0,1,2,-1,-1
68477218404,-1,-2,-3,-2,-1,-4,-4,-4
68477218404,0,0,-1,-1,1,0,-2,-1
68477225270,0,0,-1,-3,-7,-4,-3,-4
68477225270,0,-1,-1,-2,0,4,2,-1
68477232761,-1,1,0,3,2,1,-3,-1
68477232761,-2,-1,-3,-2,0,-1,-2,0
68477247776,-2,-4,-2,0,0,0,4,-1
68477247776,0,-3,0,0,-2,-4,-2,-1
68477255985,-2,-1,-2,-4,-3,-1,-1,-1
68477255985,-1,-2,-1,-3,-5,-3,1,-1
68477262534,1,-2,-1,-1,-2,-1,-2,0
68477262534,-1,0,-1,-1,-5,-8,-5,-2
68477278510,-3,-4,-1,3,5,6,5,0
68477278510,-2,-1,-1,2,-4,0,-2,0
68477285306,-1,-1,0,-3,5,1,0,-1
68477285306,1,0,0,-1,2,1,0,-1
68477292808,0,1,-1,-1,-4,-5,-3,-4
68477292808,-2,-1,-3,-2,-6,-3,-2,-1
68477307766,-2,0,-2,-1,-2,-3,-3,-3
68477307766,-1,-1,-4,-3,-2,0,0,-2
68477316012,0,-2,1,-1,-1,-1,-2,-1
68477316012,0,1,0,-1,2,-3,-1,-2
68477322713,-1,-1,0,-1,-1,0,-1,0
68477322713,-1,0,-1,2,2,1,-2,-2
68477338305,-1,1,1,-3,-4,-3,1,-2
68477338305,-1,-1,-2,0,3,1,1,0
68477345286,-2,0,-4,-1,-4,-7,-3,-2
68477345286,-1,1,17,-2,2,1,1,0
68477360927,1,-2,-26,-4,-5,-5,-2,0
68477360927,-2,-7,7,3,4,2,-1,0
68477367629,-1,0,-5,-2,-2,-2,-2,0
68477367629,-1,3,5,-1,-3,-5,-3,-2
68477375990,0,-2,0,-2,2,7,3,2
68477375990,0,4,-6,2,2,-2,-3,-4
68477382680,0,-1,13,3,4,8,3,1
68477382680,-1,-5,4,-3,-7,-4,-1,-1
68477398500,-1,-6,-13,-2,5,-3,-2,-1
68477398500,-3,-9,-8,-3,-3,-4,-2,-2
68477405269,2,1,7,2,0,-1,-2,1
68477405269,1,3,-4,0,0,1,-2,-2
68477420837,-4,-3,3,-4,-4,-6,-2,0
68477420837,0,-1,-4,1,8,6,5,2
68477427806,-1,2,4,-15,-6,-7,-7,-3
68477427806,1,0,-6,8,-1,0,0,0
68477436009,1,6,-2,-5,-2,0,0,1
68477436009,-1,-2,-3,-3,-6,0,-1,-3
68477442752,-3,-6,-10,0,-1,-2,1,0
68477442752,-3,4,18,-2,-1,-2,-5,-2
68477458457,1,-1,-15,-5,-7,-2,0,1
68477458457,2,7,20,2,2,-2,-1,1
68477465248,2,4,1,6,-1,-2,-1,0
68477465248,-2,-8,-34,-4,0,0,2,-2
68477480882,-2,-5,14,3,-1,0,1,-1
68477480882,1,3,20,-5,-4,-4,-5,1
68477487538,-4,-7,-10,4,7,5,3,1
68477487538,-1,0,4,-2,-5,-4,-3,-3
68477495030,-3,3,7,-1,-7,-4,-4,-3
68477495030,-4,-3,-11,0,5,2,-1,-6
68477504009,2,2,13,0,-8,-4,2,5
68477504009,-2,-7,-24,-7,4,3,0,3
68477518291,-2,-4,-3,-2,-1,-2,-5,-7
68477518291,1,3,-6,5,-2,-2,1,3
68477525238,-3,-11,-13,-4,1,6,3,-3
68477525238,-4,-1,-5,3,-5,-6,-2,-2
68477540932,1,12,6,3,9,-1,-2,-1
68477540932,-2,-1,-1,-8,-4,-6,-5,-4
68477547555,4,5,11,14,-8,-1,-3,-1
68477547555,-10,-15,-9,-24,-13,-5,0,-2
68477555181,-3,-3,29,10,13,-4,-5,-6
68477555181,-3,-3,-39,-16,-23,-8,-4,-2
68477564075,0,4,5,-13,-1,0,-3,-4
68477564075,9,19,19,-5,-27,-13,-1,-5
68477578420,-9,-5,9,24,6,13,4,11
68477578420,1,-7,-10,-38,-22,-4,0,-1
68477585226,1,-1,5,22,30,10,2,1
68477585226,-2,2,1,-8,-21,-8,-6,-9
68477600928,-3,-4,-18,-19,3,-2,2,-10
68477600928,4,5,15,-16,-8,-12,-7,5
68477607610,-6,-8,-17,70,51,31,4,-1
68477607610,6,2,12,15,2,-1,-2,6
68477622591,-3,-10,-3,-7,-30,-11,-7,-6
68477622591,-6,-1,10,7,3,-3,-1,-4
68477630008,-3,-1,-5,-45,-30,-17,-7,-4
68477630008,-2,-2,-4,6,5,0,-3,0
68477639070,3,0,-7,-3,13,7,2,3
68477639070,-3,-3,2,-1,-19,-9,-3,-5
68477645227,-2,-1,-1,-17,-16,-8,-2,-1
68477645227,-4,-4,-4,12,34,11,1,-1
68477661538,8,9,7,22,31,16,10,7
68477661538,6,0,1,26,15,7,1,8
68477667720,-2,-2,-12,-14,-9,-9,-5,-5
68477667720,-5,-6,-1,-5,-8,-1,-5,-1
68477682712,1,3,-2,-16,-18,-12,-7,-4
68477682712,-1,-2,-4,18,30,12,4,-2
68477690043,0,-1,13,12,-10,-1,2,2
68477690043,-3,4,-5,-20,-14,-3,-1,-2
68477699106,-6,-1,9,36,46,11,3,1
68477699106,7,-3,-6,-4,-7,4,1,-1
68477705235,-1,-2,-18,3,19,0,0,-2
68477705235,5,2,5,-10,-10,-2,0,1
68477721520,-4,1,2,0,-20,-6,-1,-2
68477721520,-7,-7,8,3,-34,-17,-8,-5
68477727560,4,-5,16,6,77,19,5,0
68477727560,2,1,11,14,60,22,11,6
68477742681,4,2,-12,12,-23,-4,-2,0
68477742681,-8,-5,1,10,5,0,1,-5
68477750087,4,1,-5,-24,-54,-20,-6,0
68477750087,-2,-1,3,-16,-9,-4,-2,-2
68477759070,7,-5,1,-32,-24,-6,0,1
68477759070,-8,-1,-2,4,13,0,-3,-4
68477765241,-4,10,-8,-13,-15,-7,0,3
68477765241,9,-2,-7,15,24,6,-1,-2
68477781670,-1,-6,-5,-8,-21,-8,-5,-2
68477781670,-2,4,-1,-7,-4,4,2,0
68477787721,-4,-3,-3,-8,-8,-5,-3,-1
68477787721,-1,-1,4,22,18,2,-1,1
68477802696,-3,-3,-4,-6,0,-2,-2,-1
68477802696,-3,-2,-3,3,17,8,4,0
68477810290,-4,0,-1,-22,-31,-8,-5,-5
68477810290,-1,-6,-18,-9,-14,-6,-2,-1
68477819135,-2,-4,19,8,-5,-2,-4,-5
68477819135,-1,-1,-10,3,1,2,1,1
68477825277,2,-2,-10,-5,-20,-6,-1,-2
68477825277,-1,-1,-1,-28,-23,-9,-4,-2
68477841687,-6,-5,-22,-14,10,-2,2,-1
68477841687,5,8,5,10,-13,-2,-3,0
68477847640,0,-5,18,6,14,4,-1,-2
68477847640,-5,-3,-13,8,4,0,0,-1
68477862793,-1,-2,-4,-12,-10,-3,-3,-2
68477862793,-1,2,8,-5,1,-5,-2,-2
68477870221,-5,-5,-7,10,-8,3,1,0
68477870221,1,2,1,10,1,-1,0,-1
68477879118,4,0,-7,-21,3,-3,-2,-1
68477879118,1,-2,-10,-11,-21,1,1,-3
68477885056,0,1,5,16,25,2,-1,-2
68477885056,-3,-7,-5,-32,-29,-5,0,-1
68477901494,-5,-2,-3,34,20,0,-2,-2
68477901494,-1,-4,0,-7,10,1,-4,-1
68477907679,2,7,1,4,-7,-4,-3,0
68477907679,-2,0,0,3,0,0,1,0
68477922629,-1,-3,5,-3,-6,4,2,1
68477922629,-2,4,7,5,3,-2,-1,0
68477930048,-2,-4,-6,-9,-7,-4,-2,-2
68477930048,-4,0,-18,11,7,3,-1,-3
68477945920,1,-2,3,-5,-7,3,1,-1
68477945920,-3,-7,0,5,17,3,1,0
68477946525,-2,-3,-7,-12,-9,-4,0,-3
68477946525,-2,1,6,3,-10,-5,-4,-2
68477961543,-3,0,2,-21,-31,-8,-4,-4
68477961543,0,-1,-11,23,59,7,5,4
68477967662,2,2,5,5,-15,-4,-2,-2
68477967662,0,-4,8,6,-5,1,0,0
68477982766,-2,2,7,10,5,-5,-3,-1
68477982766,0,0,-4,-21,-22,3,3,0
68477990248,-3,0,3,-4,3,-1,-3,0
68477990248,-1,-2,8,10,3,2,0,-2
68478005621,1,0,-7,1,13,7,1,-1
68478005621,2,2,2,-6,-18,-1,1,0
68478006464,-3,-3,-6,6,13,4,1,-1
68478006464,2,5,6,-15,-4,0,0,-3
68478021475,-2,-4,-7,4,-5,-4,-3,0
68478021475,-2,-2,-1,-11,-18,-6,-5,-3
68478027684,1,0,-4,-7,-7,2,3,0
68478027684,-1,-3,1,7,15,0,-2,0
68478042696,-1,0,3,-2,-10,-5,-1,0
68478042696,1,-1,5,0,3,0,-1,-1
68478050207,-1,-1,-1,-5,-20,-5,-2,0
68478050207,-5,-9,1,0,-8,-4,-1,-4
68478065670,0,4,-9,-9,6,1,-2,0
68478065670,-2,-1,3,6,-4,-2,1,-1
68478066518,2,-1,3,1,3,-1,-1,-2
68478066518,-1,0,2,8,-1,-3,-3,0
68478081554,2,1,3,-6,-5,1,1,0
68478081554,-2,-3,-9,-23,-12,-4,-2,-3
68478087779,-3,-2,-1,15,23,-3,-2,-1
68478087779,1,-6,-17,4,5,4,2,-1
68478102548,0,5,10,1,6,8,2,1
68478102548,-6,-12,-6,-11,-21,-9,-5,-4
68478110153,0,0,-4,-4,-15,-3,-3,0
68478110153,-3,0,1,2,10,0,-2,1
68478125927,-2,-2,-5,-3,-6,-2,-1,-1
68478125927,0,1,4,11,15,3,1,-1
68478126507,-1,-1,6,-5,-12,-5,-3,-2
68478126507,-2,-2,-18,-9,-6,-4,-1,-2
68478141533,1,3,-5,-6,-9,1,2,1
68478141533,1,0,-6,2,6,4,1,1
68478147711,-3,-1,2,5,4,1,-1,-1
68478147711,-2,0,6,-3,-22,-5,-4,-2
68478162743,0,-4,4,16,27,5,2,2
68478162743,-3,-3,-3,-2,-11,-3,-3,-2
68478170224,-1,0,-3,-8,-7,-2,-1,-1
68478170224,-1,-1,1,-4,-1,1,1,0
68478185715,-3,-2,-2,-2,-11,-3,-2,-2
68478185715,-3,-3,4,8,17,0,-4,-2
68478186491,3,-1,11,1,4,5,1,-1
68478186491,1,4,-5,-3,3,-5,-2,0
68478201553,-2,-1,-9,3,-11,-5,-3,-3
68478201553,2,3,4,14,26,6,2,2
68478207680,-2,-1,-5,7,9,2,-1,0
68478207680,1,-1,0,-1,-13,-4,-2,-1
68478222698,1,0,10,-2,-5,-1,1,1
68478222698,-1,-2,-8,-10,-15,-7,-2,-1
68478230292,-2,-5,-8,-8,-10,-5,-3,-3
68478230292,-1,0,3,-1,6,11,6,2
68478245940,-3,-3,-3,-2,-6,-5,-5,-1
68478245940,2,2,2,-1,-3,0,-1,1
68478246570,-2,-1,-5,-9,-14,-3,-1,-1
68478246570,-1,-2,-2,-3,1,-2,-3,-3
68478261570,-5,-4,-7,-5,-1,-2,-2,-2
68478261570,3,2,7,3,-3,-3,-2,-2
68478267528,-1,0,-4,-14,9,3,1,1
68478267528,0,3,8,7,-15,-6,-4,0
