timestamp,emg1,emg2,emg3,emg4,emg5,emg6,emg7,emg8
51602988024,0,1,5,7,3,-3,1,2
51602988024,0,0,-2,1,-3,-2,0,1
51602995501,-3,0,6,-1,2,-1,-1,-2
51602995501,-1,1,-1,-1,1,0,-1,-3
51603002814,-2,-4,-5,-7,-3,-1,-1,-2
51603002814,0,0,0,-8,-4,-2,-1,-1
51603010318,1,-1,-1,11,3,1,1,0
51603010318,-2,-2,-6,2,-4,-4,0,1
51603025602,-1,-1,4,0,1,3,1,-1
51603025602,-3,-1,0,8,11,1,0,-1
51603033013,-2,-2,-4,-4,-5,-4,-2,-1
51603033013,0,1,2,-4,3,0,-1,1
51603043704,2,4,2,0,-3,-5,-4,-2
51603043704,-3,-11,-20,-13,-8,-2,-3,-3
51603044701,0,0,1,-4,0,-1,-2,1
51603044701,-2,-2,-3,10,5,-1,-2,-1
51603049545,1,0,3,-4,-3,1,-1,-1
51603049545,2,2,4,3,-2,-2,-2,-2
51603050143,-1,-3,-4,0,5,1,-1,-1
51603050143,0,-1,1,3,-10,-4,-1,-1
51603056590,-1,-3,-6,-13,-8,-2,-1,-3
51603056590,0,0,0,-8,-3,0,-1,-1
51603062885,-3,0,-3,9,3,0,-1,0
51603062885,0,-2,-1,-11,-5,3,-2,-1
51603079113,1,2,0,19,25,-3,0,-2
51603079113,-2,1,1,-4,-10,-4,-1,0
51603085418,1,0,0,-1,-4,-2,-2,-1
51603085418,0,0,0,-6,-4,-1,0,1
51603101530,-4,-4,-6,-10,-4,2,-3,0
51603101530,-2,0,6,-1,5,2,0,-2
51603115606,1,-1,2,7,2,-1,0,-1
51603115606,-3,1,2,3,3,-3,0,-3
51603131711,2,1,-3,-2,-9,-4,0,-2
51603131711,-3,-4,-9,-1,-7,-2,-2,0
51603160346,-2,-1,-3,7,12,0,-2,-2
51603160346,0,2,1,-1,-7,-1,-1,0
51603167944,0,-1,-2,-1,-4,-1,0,1
51603167944,0,-5,-3,-4,2,-1,1,-1
51603175323,-2,-1,-1,-3,-5,-2,-2,-2
51603175323,-1,-1,-1,-2,-3,-1,-1,-1
51603182939,1,4,4,4,5,0,0,4
51603182939,-2,-5,-9,-10,-9,-3,1,0
51603197842,0,3,11,10,4,-1,-2,-3
51603197842,0,-2,-8,-5,0,0,-1,-3
51603205263,0,-2,-3,-2,-6,-5,-4,-1
51603205263,-4,-3,2,6,4,0,-3,-3
51603216238,-3,-6,-6,4,-1,-4,0,4
51603216238,-2,2,3,-4,-5,-4,-1,1
51603217050,4,3,4,0,0,-1,-1,-1
51603217050,-13,-1,-3,-1,-1,0,-1,-7
51603221137,3,2,-1,-5,-4,-2,-1,-3
51603221137,-8,-8,-5,0,-6,-4,-3,-9
51603221768,3,2,2,-3,-4,1,4,10
51603221768,5,3,4,9,9,2,0,4
51603235403,-2,-1,-1,-1,-3,0,-1,1
51603235403,1,-3,-5,-2,1,-1,0,2
51603242726,-4,9,2,9,6,-2,-2,-7
51603242726,0,-10,-2,-5,-9,-2,0,-3
51603257710,2,0,-1,-9,-3,1,2,3
51603257710,3,7,2,1,-2,0,-1,2
51603265203,-13,-10,2,5,2,-1,-4,-8
51603265203,1,3,6,3,-3,-3,-2,0
51603280266,-6,-6,-5,0,-1,-1,-3,-5
51603280266,-1,-10,-4,1,4,1,1,2
51603287733,5,13,0,-3,-4,0,0,2
51603287733,12,8,4,7,0,-4,-4,-2
51603304196,-9,-13,-5,-18,-8,0,0,-4
51603304196,2,6,1,10,-5,-3,-2,0
51603304922,2,-4,-5,3,7,4,5,5
51603304922,-8,-4,0,-5,-7,-6,-8,-3
51603310239,7,10,3,8,2,-3,-3,-3
51603310239,-1,7,8,1,2,3,1,-2
51603317893,1,0,-6,-6,-5,1,1,-2
51603317893,-4,-8,-5,-4,-3,0,1,2
51603332797,-5,-9,-5,8,8,-4,-3,-5
51603332797,0,-4,5,-9,-1,-1,-2,-3
51603340376,-7,-2,-4,3,-4,0,-2,-2
51603340376,6,2,-10,3,8,2,3,6
51603355409,-6,-8,9,1,4,1,-2,-2
51603355409,-4,-4,-1,1,5,-2,-1,0
51603363004,3,0,3,-8,-7,-4,-2,-3
51603363004,-9,-3,1,5,7,-2,-5,-11
51603385832,3,-7,-8,-2,-1,5,7,15
51603385832,6,-1,-7,-13,-4,1,0,1
51603394949,-4,-5,2,4,9,1,-2,0
51603394949,-9,15,5,-13,3,-2,-3,-5
51603396397,19,21,11,2,0,-3,0,-1
51603396397,-18,-13,-17,-2,6,1,-3,-14
51603397256,-13,-52,-15,-19,-35,-16,-3,3
51603397256,0,-4,-3,1,-27,-6,1,-4
51603415293,5,6,-9,-30,-17,5,9,17
51603415293,1,7,10,7,-17,0,-1,-1
51603422886,8,20,0,4,20,10,1,-5
51603422886,-9,-24,-11,-2,2,-1,0,-1
51603437897,-2,0,5,3,-12,-8,-4,-5
51603437897,10,9,-5,0,10,1,2,9
51603445405,-4,-6,1,0,1,-1,0,-1
51603445405,1,22,2,-1,2,1,-6,-1
51603460427,-9,-25,-3,5,13,1,-6,-3
51603460427,-1,4,-2,-5,5,-2,3,-4
51603467889,-14,-18,-1,1,12,1,-6,-7
51603467889,5,-9,-14,-8,-4,-4,-1,-10
51603477420,10,10,10,0,-2,-3,4,31
51603477420,7,13,16,11,4,13,-3,8
51603478371,2,20,-1,-4,-10,-4,4,8
51603478371,3,-4,-12,-5,-1,-1,-24,-19
51603484196,-28,-24,-5,-12,-13,-23,-17,-19
51603484196,2,-7,6,12,5,13,27,-6
51603497813,16,50,0,-2,9,4,5,10
51603497813,-20,-53,-4,17,26,16,8,1
51603512899,13,42,0,-19,-37,-19,-11,-7
51603512899,-9,-18,-12,-11,1,-15,-11,-1
51603520302,0,-1,2,-3,-19,-8,-1,-7
51603520302,11,21,9,0,36,24,4,13
51603535406,5,9,-11,7,-66,-42,-9,-13
51603535406,-6,-10,0,-1,-5,-2,-1,5
51603542898,-9,-23,-5,-7,-8,-8,-6,-9
51603542898,9,16,14,2,8,-4,1,10
51603558596,-7,-5,-3,11,50,23,4,-16
51603558596,7,23,3,-6,4,-12,-5,0
51603559263,8,-11,-4,4,-6,-10,1,12
51603559263,-1,9,7,0,-19,-14,7,6
51603566863,-2,-14,-6,5,6,-2,3,-2
51603566863,-7,-5,-2,-1,-12,6,-13,-12
51603580252,-1,8,-4,5,6,17,-6,0
51603580252,-13,-16,-1,-8,-18,-5,0,-2
51603595440,-2,-17,-11,-10,-10,2,3,2
51603595440,-1,-8,0,4,11,-4,-4,-1
51603602706,7,8,4,-5,20,-7,2,0
51603602706,7,12,-1,3,0,8,5,0
51603617926,-8,-8,-4,-6,19,22,-7,-5
51603617926,-4,-6,0,4,1,15,-5,0
51603625492,-2,-1,0,-2,0,21,3,-2
51603625492,0,4,-3,-11,-20,-2,-5,-1
51603640264,0,0,0,-4,7,7,6,1
51603640264,6,6,0,-9,-2,-8,3,4
51603649295,-1,-8,-6,0,-5,-19,-1,6
51603649295,-5,-2,2,1,-6,-15,6,-9
51603650726,0,2,0,8,5,-8,-2,-2
51603650726,-2,-4,-7,-8,-7,-14,-3,-2
51603662900,-9,-9,0,12,-4,-6,-3,-6
51603662900,6,15,7,-8,-11,-4,0,6
51603677944,-3,5,-9,4,-2,0,2,-2
51603677944,-9,-31,-15,-2,-10,-9,-1,-6
51603685397,-3,-6,-1,-6,2,10,-6,-2
51603685397,-1,-4,-8,-6,6,14,-1,1
51603700277,5,10,4,-4,16,23,-1,0
51603700277,7,14,11,5,-1,3,-1,6
51603707899,-9,-3,-7,-3,7,-2,1,-5
51603707899,-1,-14,-4,2,6,-6,0,-1
51603722771,-5,-9,-12,-15,-1,15,4,-2
51603722771,-6,-7,-1,4,1,-2,-4,-7
51603731692,9,7,5,-6,-5,-8,1,-1
51603731692,0,6,3,7,1,-24,-1,3
51603733378,-6,0,10,12,7,-7,-2,-3
51603733378,-1,5,0,-4,1,15,-1,-2
51603737848,-1,-1,-5,-6,-7,16,-4,-5
51603737848,4,5,-1,-9,2,21,1,2
51603752874,8,4,4,-4,0,12,0,2
51603752874,-6,-9,-14,-6,-6,3,1,0
51603760373,7,5,13,9,0,0,3,0
51603760373,1,8,-5,-16,-10,-5,-3,-1
51603775372,-6,-4,1,4,-1,-13,-3,-3
51603775372,-2,-7,-7,-6,-4,-1,0,0
51603782793,-7,-5,3,7,-1,10,-4,-8
51603782793,-5,-9,-6,4,-4,14,0,-1
51603797931,4,0,2,-3,-3,11,2,0
51603797931,3,10,2,2,-2,-24,-4,-1
51603812875,-3,-12,-4,0,-2,-17,0,-1
51603812875,3,5,5,2,-6,-18,-3,2
51603822360,-3,-3,-2,-1,-1,-11,-2,0
51603822360,3,6,6,5,1,-8,-1,2
51603823363,6,5,1,1,-5,-13,0,0
51603823363,-5,-6,-3,0,0,2,-2,-1
51603829205,0,2,6,11,0,-6,-1,0
51603829205,1,5,0,-4,-6,-6,-1,0
51603835414,-2,1,-1,-3,-2,-7,-5,-2
51603835414,1,-3,-3,1,-1,0,-1,-1
51603850326,0,-6,-5,-5,-1,1,0,0
51603850326,1,16,15,5,2,-5,-3,-1
51603857704,-8,-22,-10,4,3,3,2,-3
51603857704,-6,-5,0,5,5,5,1,-2
51603880223,7,12,3,4,1,-1,-2,1
51603880223,-2,-10,-4,-2,1,6,-1,-2
51603887763,3,4,0,-4,-2,2,1,1
51603887763,-1,6,1,1,1,-6,-3,-3
51603903390,-4,-3,3,6,1,-4,-1,-1
51603903390,3,0,-7,-2,-1,4,1,1
51603911809,-4,-2,5,3,2,2,-2,-2
51603911809,-1,1,-7,-8,-3,-5,-2,-3
51603913408,1,-2,-3,-2,0,-4,2,0
51603913408,1,2,-3,-4,1,0,0,-3
51603917954,-3,-3,2,-8,-2,-6,-1,-4
51603917954,4,5,-3,2,0,1,5,1
51603932799,2,9,4,-1,0,-11,0,2
51603932799,-5,-12,-6,2,1,0,1,-3
51603947777,2,10,-1,0,-1,-4,-4,0
51603947777,-2,-14,-1,-3,1,1,-4,-2
51603962824,-3,-1,5,5,0,6,-1,-2
51603962824,0,5,3,-3,-4,6,-2,-1
51603970273,0,-4,-3,-2,-1,7,-2,-2
51603970273,1,5,5,7,2,6,-1,2
51603985200,2,0,-5,0,3,2,0,1
51603985200,1,-1,-1,-6,-3,-3,0,-1
51603994527,3,9,-2,-3,1,1,-2,0
51603994527,1,-2,5,1,-5,-5,3,2
51604001507,-5,-12,-11,-3,-1,6,3,-3
51604001507,-4,-2,4,12,3,-1,1,0
51604003181,-6,-3,-10,-13,-2,-9,-2,-2
51604003181,10,20,0,1,-3,-8,-4,3
51604007666,-6,-15,0,-4,1,-6,-4,-1
51604007666,-5,-5,-1,2,-3,-2,-3,1
51604015191,3,1,-7,-1,-2,0,-2,-2
51604015191,-7,-14,4,-2,-3,-6,-3,-4
51604030271,-1,4,1,0,-6,-4,-4,-2
51604030271,-1,-6,-10,-3,3,1,-1,-2
51604037728,-3,-5,-2,-3,-2,-1,-2,2
51604037728,-1,1,2,2,-2,3,-4,-2
51604052780,4,12,4,1,-2,2,1,0
51604052780,3,-3,-4,-6,-2,3,-2,0
51604060385,-1,6,0,-9,-3,1,-3,-3
51604060385,-9,-16,-13,-7,1,4,0,-4
51604076110,0,-1,0,10,-1,-1,-1,-2
51604076110,5,7,2,-2,0,-7,-1,-2
51604076693,3,10,2,-3,1,1,4,2
51604076693,-8,-24,-10,-3,-2,-22,-1,-4
51604090482,-1,-3,1,-10,-4,3,-2,-2
51604090482,-6,0,-10,1,1,12,1,0
51604105374,-4,-16,2,6,-2,46,-4,-2
51604105374,4,15,3,2,0,9,2,2
51604120225,-3,-2,-3,-2,-2,-7,-1,-1
51604120225,-1,-1,5,-3,-4,-9,-2,-1
51604127788,-2,-2,-4,-5,-1,-14,-1,-1
51604127788,4,7,-2,-2,1,-3,1,2
51604142771,-4,-5,0,5,2,-4,-1,-1
51604142771,0,-2,3,-1,5,5,-1,-1
51604150352,2,5,9,8,0,-4,0,-1
51604150352,2,10,-1,-4,-6,0,-4,-4
51604167332,-12,-27,-10,-2,0,-3,0,-3
51604167332,-5,1,-3,-8,0,-4,-1,-1
51604168064,-3,-6,-3,0,0,-10,-1,-2
51604168064,0,2,0,-8,-5,-2,0,-1
51604169686,4,9,4,8,0,-1,-2,0
51604169686,0,1,1,-2,-4,-94,0,-1
51604187943,4,3,-1,-5,-3,-46,-1,0
51604187943,-2,-3,-9,0,2,4,3,2
51604202741,6,5,0,1,4,28,-2,1
51604202741,-5,-5,1,-6,-7,55,-1,-4
51604210203,-3,3,6,10,-3,19,-2,-3
51604210203,-1,-2,4,3,1,12,-1,-2
51604232729,0,-1,-9,-10,-6,10,1,1
51604232729,-1,-6,-6,4,5,14,1,3
51604240261,-4,-6,-5,-7,-2,-5,1,0
51604240261,3,13,5,1,-3,3,-1,-2
51604251190,-5,-11,-11,-10,0,-8,-1,-5
51604251190,-3,-8,4,3,-1,-1,-3,-1
51604252001,4,11,-3,-2,3,3,1,1
51604252001,-15,-33,-16,3,0,-1,-2,-1
51604255279,2,12,5,0,-5,-9,0,0
51604255279,1,0,1,-3,-2,2,-2,-4
51604262950,0,-3,-5,1,-1,1,-2,-4
51604262950,6,11,14,1,-3,-4,-2,2
51604277662,-1,2,1,1,4,-3,0,2
51604277662,-5,-2,-6,-3,-1,6,-1,-1
51604285203,0,-2,1,3,0,2,-1,-2
51604285203,0,3,2,3,5,-2,3,-1
51604300176,-6,-11,-5,-8,-7,-11,-1,-4
51604300176,3,6,7,5,3,2,0,3
51604307676,1,5,-2,-3,-1,-4,2,2
51604307676,-2,-6,1,1,1,-5,0,0
51604322675,7,16,0,-4,0,1,0,2
51604322675,-3,-6,-1,-2,0,2,0,-1
51604330157,-9,-19,-8,-4,-2,-11,-4,-4
51604330157,2,-3,-1,-1,0,-6,-3,-1
51604339196,-4,0,1,-2,0,10,0,-2
51604339196,4,6,-3,-5,-3,3,2,0
51604346483,-3,-1,0,0,0,2,1,0
51604346483,3,6,-5,-2,0,2,-2,0
51604348123,-2,-2,7,7,2,-3,-1,-2
51604348123,1,5,0,0,-3,0,-3,0
51604367672,-1,-4,2,1,-4,2,-2,-2
51604367672,-4,-6,-13,-8,-3,-9,-1,-2
51604382654,5,9,6,5,1,-6,0,1
51604382654,-1,0,-4,-8,-4,1,1,0
51604390141,-2,-13,-11,1,-3,-4,-2,-2
51604390141,-10,-6,0,-3,-3,0,-1,-5
51604405137,-2,-4,-6,-5,-1,1,0,-1
51604405137,4,4,2,5,-2,-3,0,0
51604412718,2,9,5,-1,3,5,0,2
51604412718,0,-6,-5,-7,-6,-2,-2,-3
51604423053,1,3,7,2,-3,-5,-3,-2
51604423053,-7,-7,-10,-2,2,1,0,-1
51604423831,4,6,4,1,-1,1,-1,1
51604423831,-1,2,-1,-4,-2,-5,-1,-1
51604427706,-2,-2,-7,-6,-3,-6,-2,-2
51604427706,-1,-2,7,2,-1,-1,0,-1
51604442653,-1,-1,-3,0,-2,1,2,1
51604442653,0,4,-3,-7,-3,5,-2,1
51604457880,0,7,0,4,-1,0,0,0
51604457880,-7,-16,-9,-3,0,-2,-1,-2
51604465172,-4,0,6,2,-1,-5,-2,-1
51604465172,2,12,6,7,2,24,-1,-1
51604480438,-2,-12,-11,-8,-2,15,-2,-3
51604480438,2,8,10,14,3,7,-2,-1
51604487808,0,6,-1,-9,-3,-8,0,-1
51604487808,1,-6,0,3,2,-19,-1,-1
51604512198,-8,-1,-5,-3,-1,-13,-1,-2
51604512198,-1,-3,2,2,-2,-9,-1,-1
51604512954,-1,0,-2,-3,-2,-6,-3,-2
51604512954,-1,-1,4,5,0,-6,0,-1
51604514546,3,4,2,-4,1,0,-1,-1
51604514546,0,1,-6,-7,-3,0,0,-1
51604525365,-6,-15,-3,3,3,5,-2,-3
51604525365,-2,-1,-2,1,0,3,-2,1
51604547711,-1,-8,2,-4,-1,-4,0,-1
51604547711,-5,-9,-8,-11,-6,1,-1,-2
51604555216,1,-2,-7,0,-2,3,-3,0
51604555216,-2,-2,-7,-4,-2,-3,-1,-1
51604570246,3,7,11,-5,-8,-8,-1,0
51604570246,2,-2,-2,1,3,-3,0,0
51604577661,-5,-5,-6,1,3,-1,1,1
51604577661,-3,-6,-7,-1,-3,-2,-2,-1
51604594896,2,8,3,4,2,-3,-3,-1
51604594896,-3,-7,-8,-4,-1,5,1,-2
51604595521,3,7,3,-2,0,3,-1,-2
51604595521,-6,-6,3,3,2,9,-2,-4
51604597154,-2,-4,0,1,1,11,-1,0
51604597154,-1,-1,-4,-4,-5,3,-1,0
51604600295,8,23,2,3,-3,2,-1,-2
51604600295,-10,-27,-8,1,-2,-4,-2,-3
51604615350,-3,-5,6,7,-1,-6,-3,-2
51604615350,-4,-8,-6,-3,3,-2,2,2
51604622941,1,2,3,-2,-1,-2,0,1
51604622941,5,12,6,-8,-7,-6,1,-2
51604637827,0,-5,-11,0,-2,-3,-2,-5
51604637827,0,4,0,2,0,-1,1,-1
51604645427,-3,-5,-3,-7,-4,-1,0,-3
51604645427,6,12,7,10,3,-1,1,1
51604660282,-7,-14,-12,-7,-1,-2,1,0
51604660282,4,11,7,1,-1,-4,-2,0
51604667703,-1,-11,-4,-2,1,0,0,-1
51604667703,-4,-4,-1,-2,0,-5,-3,-2
51604684212,1,0,1,-1,-1,-3,-1,1
51604684212,0,9,5,5,-2,-8,-2,0
51604684971,-1,-8,-4,-4,-5,-15,-3,-2
51604684971,-2,1,-1,5,-2,-7,-1,0
51604690262,3,3,0,5,4,13,4,2
51604690262,5,13,12,-5,1,11,0,1
51604705334,-6,-3,-7,1,-3,11,0,-3
51604705334,7,2,-4,-9,-2,2,-2,0
51604720365,-12,-16,-9,-4,-6,-2,-4,-6
51604720365,1,-2,8,8,-1,-3,-3,-3
