timestamp,emg1,emg2,emg3,emg4,emg5,emg6,emg7,emg8
51615070085,1,-4,-15,-8,3,0,-3,-1
51615070085,-1,0,0,-3,-4,-2,-3,-1
51615085011,-4,-4,-4,-5,6,1,-1,-2
51615085011,5,2,3,-2,-15,-3,1,2
51615092364,5,1,5,-5,0,5,2,3
51615092364,-9,-8,-4,8,-2,-7,-7,-9
51615107344,-1,0,-4,-2,11,3,1,-1
51615107344,-2,-1,1,-4,-31,-7,-5,-1
51615118320,-1,0,2,2,4,-2,-3,-6
51615118320,1,0,0,-5,0,-3,0,4
51615121135,-1,0,7,11,17,12,-1,-5
51615121135,-4,-5,-12,-12,-17,-14,-1,-2
51615121978,3,0,1,-1,-2,4,6,10
51615121978,-1,-1,-1,-6,-3,0,0,-2
51615124697,-1,2,6,4,-3,-1,-1,-3
51615124697,2,-1,2,-2,11,3,0,0
51615125481,-6,-6,-3,8,4,0,-2,-5
51615125481,1,0,-1,0,-18,-8,0,3
51615137593,2,4,-3,-5,-18,-10,-4,-1
51615137593,-1,0,-1,3,-5,2,1,-1
51615146258,-1,7,0,-2,-18,-13,-3,-2
51615146258,-4,-11,-7,0,23,14,-2,-5
51615159960,1,2,-4,-1,-7,-2,3,5
51615159960,-1,-3,-4,-3,16,6,-3,-6
51615168588,-7,-10,-4,1,12,-6,-4,2
51615168588,5,7,6,-2,-31,-8,-2,2
51615182499,5,-3,0,-1,-3,1,1,1
51615182499,-4,6,-12,-9,6,-3,-3,0
51615191078,1,9,18,3,7,-8,-3,-2
51615191078,-5,-4,-2,0,7,-11,-3,-4
51615206106,-1,-8,-4,0,-4,8,-1,1
51615206106,3,8,6,3,-3,-4,4,5
51615207652,-5,-6,-6,-5,-9,5,-2,-7
51615207652,1,-3,-2,1,-10,1,-3,0
51615249887,2,3,1,-9,-65,-15,-3,-4
51615249887,6,6,13,20,9,-5,0,9
51615257444,0,1,-11,-10,26,23,7,-2
51615257444,-6,-2,-4,-6,-16,-18,-9,-6
51615264909,-3,-21,-19,-7,12,-3,0,2
51615264909,-1,8,-3,-4,-36,6,-1,-3
51615272457,1,-1,6,8,-41,-20,-3,1
51615272457,1,-6,-6,-1,17,6,0,1
51615289939,-1,3,16,5,12,-12,-4,-3
51615289939,2,6,-5,2,31,25,1,-3
51615290810,-5,-4,-5,-2,8,-4,13,12
51615290810,-11,-7,3,-6,-20,-5,-30,-16
51615292330,2,9,0,1,7,-2,13,0
51615292330,-11,-16,-5,-5,17,-14,-45,12
51615296436,-6,5,3,-4,-24,34,80,-23
51615296436,-5,-23,-12,-1,6,-13,-8,-1
51615297734,29,58,9,7,19,31,13,21
51615297734,-37,-88,-27,-15,-20,-31,12,-15
51615302279,12,16,-1,-1,9,-2,-37,-14
51615302279,-2,-4,3,-2,-6,0,-1,3
51615324919,-11,-8,-3,2,1,8,-1,-15
51615324919,15,13,4,-3,5,5,14,19
51615332411,-9,-8,-1,-5,-10,-17,-24,2
51615332411,8,25,13,9,9,-1,12,-4
51615347246,-2,-17,-8,-3,1,3,-16,5
51615347246,10,35,15,1,-4,0,4,-3
51615354899,-4,-13,-5,2,50,17,-8,0
51615354899,1,10,4,2,-14,2,7,9
51615369903,-10,-17,-2,-7,25,-3,-4,-7
51615369903,4,5,-4,-2,-51,-18,-4,-6
51615378640,-9,-18,-4,-2,-12,0,-5,0
51615378640,11,17,1,7,12,7,8,4
51615380331,1,18,8,-7,-1,-6,-7,-7
51615380331,1,-23,-7,-4,11,-4,1,-6
51615392242,5,19,10,3,4,-6,-14,7
51615392242,-14,-34,-17,-10,-5,-4,2,2
51615407409,-3,9,11,9,-12,-12,-5,-6
51615407409,9,28,4,-3,13,18,9,0
51615414872,5,4,12,9,-12,-9,-9,-3
51615414872,5,18,4,-2,0,-6,-9,-8
51615429748,-12,-34,-10,-2,-4,8,-2,-1
51615429748,4,7,8,-1,5,-2,-2,-13
51615437416,2,-2,-1,4,5,-4,5,20
51615437416,13,10,8,3,0,11,9,6
51615452407,5,-4,-11,1,0,-4,-5,1
51615452407,3,33,4,-4,-3,1,0,0
51615470132,-25,-66,-30,-15,-13,-7,-10,-12
51615470132,-4,-4,2,-1,-2,7,2,-1
51615471599,2,0,2,3,-7,0,5,5
51615471599,8,0,2,7,4,-1,1,0
51615472627,3,46,7,-8,-5,-11,-1,-2
51615472627,-13,-38,-6,-9,-4,-10,-5,-5
51615482419,-4,-8,-9,-12,3,-8,2,-1
51615482419,3,-3,0,10,12,10,3,3
51615489924,-3,5,3,-8,2,-7,-6,-2
51615489924,6,-4,-10,-15,0,-3,5,7
51615504926,0,5,11,8,-3,9,1,-3
51615504926,-6,2,-6,-7,0,4,2,6
51615512352,7,0,-1,-3,-11,-2,-4,1
51615512352,3,26,7,9,6,3,-4,-5
51615527323,7,12,-1,-14,-5,9,0,-4
51615527323,-23,-44,-9,-5,-11,-10,-8,-5
51615534832,-1,-5,0,7,4,19,-2,0
51615534832,5,0,4,0,-5,3,13,0
51615550948,0,9,-8,0,-1,-7,-5,-1
51615550948,1,9,4,1,-1,-5,-1,-3
51615551660,-1,-14,-10,-1,-3,-9,-4,-6
51615551660,-3,5,4,-4,2,13,0,3
51615579737,-2,-3,3,5,1,0,5,3
51615579737,-2,-7,-4,-1,2,0,-1,-5
51615587158,5,8,3,5,1,-8,2,9
51615587158,7,14,3,3,2,-14,-2,-1
51615602442,-9,-11,-16,-6,-2,-12,-2,-3
51615602442,-9,-20,-8,-5,3,6,-4,-1
51615617289,7,22,6,5,-2,-13,-3,-4
51615617289,-15,-37,-16,-1,-1,-2,2,0
51615642646,7,16,7,-1,-2,-14,-3,-1
51615642646,3,13,10,2,0,-17,-1,2
51615643262,5,-2,-3,-4,5,12,5,1
51615643262,-8,-8,-14,-3,-4,9,-4,-3
51615645000,-8,-7,1,-2,-1,35,-7,2
51615645000,17,16,-2,-1,1,27,3,3
51615647293,-1,1,4,2,1,4,-2,-1
51615647293,-2,-2,-6,-1,0,15,-5,-4
51615669788,-12,-15,1,-5,-5,-2,-2,-6
51615669788,0,3,-2,2,-3,-14,-3,-1
51615684895,2,0,15,4,1,-15,1,-1
51615684895,0,0,2,1,-1,-2,0,-1
51615692262,-5,-5,-5,-1,-1,15,-1,-2
51615692262,0,0,-6,2,-3,7,0,0
51615731946,-9,-6,12,0,0,-6,2,0
51615731946,-5,-6,-13,-11,-8,-36,-5,-6
51615732527,3,-3,1,-2,-5,-33,-3,-1
51615732527,0,9,2,3,1,-15,-4,-2
51615734697,-2,-14,-5,1,-4,-18,1,1
51615734697,-3,16,-6,-10,-2,-7,0,-3
51615737356,-5,-16,-6,2,-1,-1,-3,-1
51615737356,6,16,13,8,1,7,5,2
51615752452,0,-2,-15,-11,-3,0,0,-4
51615752452,-2,-7,9,8,-4,0,-1,-1
51615759855,6,14,2,1,-1,-3,1,0
51615759855,-3,4,-12,-20,1,1,1,1
51615774837,-13,-42,-11,-3,-4,-9,-6,-4
51615774837,-2,12,9,2,-1,0,0,-2
51615782438,-5,-7,-8,-4,-3,7,-2,-4
51615782438,-12,-10,9,1,-2,8,-5,-5
51615797299,9,11,-6,-1,0,9,0,2
51615797299,-8,-8,2,3,-2,3,2,1
51615806811,-1,-1,-6,1,2,-8,2,2
51615806811,2,2,3,1,1,2,-2,-4
51615808529,3,7,-9,-2,-1,-2,0,2
51615808529,-6,-21,8,3,-3,-8,-7,-5
51615809223,2,3,3,-1,-3,2,1,-1
51615809223,-3,-8,-9,-9,-7,-12,-3,-1
51615813996,-4,-5,-3,11,4,3,-2,-4
51615813996,7,15,-7,-5,2,2,0,4
51615827904,-5,-1,12,-1,-1,-5,-2,-3
51615827904,2,-2,-11,-1,-3,3,-1,0
51615857357,-9,-5,6,0,-3,0,0,-3
51615857357,2,11,1,3,-1,-3,1,1
51615864837,1,-8,-7,-5,0,1,0,0
51615864837,-1,-1,-2,1,1,-1,-1,-3
51615887440,3,6,5,-2,-3,0,-1,-2
51615887440,-9,-8,0,-2,-2,-2,-5,-5
51615895324,0,2,0,1,0,-2,0,3
51615895324,5,5,5,6,3,-2,0,2
51615905079,-5,-4,1,-4,-2,-9,-5,-3
51615905079,5,6,-4,-2,3,14,4,0
51615906082,-6,-7,0,3,-1,2,-3,-2
51615906082,-7,-28,-14,-7,-5,-5,-1,-2
51615909762,6,18,12,0,-1,1,2,2
51615909762,-4,-12,-12,-4,-5,-12,-4,-1
51615917230,-1,-1,2,2,2,5,3,2
51615917230,-1,11,3,0,-1,-4,-1,-3
51615932527,-9,-16,-10,-4,-2,1,-3,-3
51615932527,5,7,3,1,2,1,2,1
51615939898,-3,-9,-9,-5,-2,2,0,-2
51615939898,4,7,2,0,-2,0,1,1
51615954775,4,16,-3,-3,-2,1,0,1
51615954775,-9,-29,-12,-4,-5,-9,-5,-4
51615962208,-2,1,3,0,0,7,-2,-2
51615962208,-3,-1,2,3,0,-2,-2,-1
51615979510,0,-4,-7,-7,0,5,4,-1
51615979510,1,14,8,3,-1,0,-1,1
51615980205,-3,-19,-16,-10,-3,-2,-2,-3
51615980205,2,15,2,2,-1,-3,-2,-2
51615981719,-4,-14,7,1,1,0,0,1
51615981719,-1,3,-5,-1,-1,-4,-3,0
51615985488,-1,6,2,1,-5,-8,-6,-5
51615985488,0,-7,0,-4,1,11,3,3
51616007251,3,11,-7,-2,-2,-3,-2,-2
51616007251,0,0,9,1,-2,3,0,-4
51616014693,-2,-5,0,1,1,-3,0,2
51616014693,-6,-16,-15,-6,-3,-2,1,2
51616029673,-2,-7,-2,-1,0,2,0,-1
51616029673,-1,-2,2,-4,-2,0,0,-1
51616037245,10,27,12,2,-4,-4,-2,0
51616037245,-3,-10,-9,-2,-1,-3,-3,-3
51616052198,-5,-9,-5,0,-2,2,0,0
51616052198,-4,9,-3,0,-2,-4,-3,1
51616059696,-9,-28,-8,-2,-1,1,0,-1
51616059696,1,6,-4,-9,0,-2,-3,-2
51616070057,-4,-7,-5,-1,1,5,2,-1
51616070057,4,-3,3,4,-2,-3,0,-1
51616070831,1,24,9,-1,3,4,1,1
51616070831,-5,-12,-7,3,1,-3,-4,-2
51616074646,-4,3,3,-3,-6,-10,-5,-4
51616074646,0,-14,-8,-3,-1,-5,-1,0
51616089730,4,10,-1,-1,4,4,0,-3
51616089730,-6,-9,3,-2,-1,-2,1,2
51616112499,6,16,5,1,-2,-3,0,0
51616112499,-9,-24,-18,-4,-2,-2,-4,-6
51616119653,-3,-5,-16,-3,-4,-1,-1,-1
51616119653,1,3,19,3,-3,-1,-4,-3
51616134669,2,-3,-11,-6,0,-3,-1,0
51616134669,-2,-4,3,3,1,4,1,1
51616142223,-1,33,5,-5,1,3,1,-2
51616142223,-7,-27,-11,1,-7,-9,-8,-8
51616160731,1,4,6,7,5,4,0,1
51616160731,1,-7,1,-1,1,-1,0,-3
51616161579,-3,-2,4,2,-1,-1,1,1
51616161579,4,15,6,1,2,0,1,1
51616164644,2,4,-5,-4,-4,-1,-2,0
51616164644,1,9,2,0,2,2,3,3
51616172371,-6,-20,-1,0,-4,-5,-3,-3
51616172371,-3,2,-1,-3,-3,-2,1,-1
51616202408,-3,-14,-9,1,-4,-4,-2,-3
51616202408,3,15,2,0,2,2,2,1
51616209806,10,19,11,0,-4,-4,-1,0
51616209806,-9,-33,-8,-3,-2,-1,-3,-5
51616232329,-2,11,7,-1,-3,0,-2,-3
51616232329,-7,-16,-11,-1,-1,-6,-3,-3
51616242594,1,-2,-6,-8,1,4,-2,-1
51616242594,1,10,2,0,-1,-7,-1,0
51616244230,0,3,2,5,2,2,3,3
51616244230,-4,-7,-4,-4,-2,-1,-4,-3
51616248715,-1,-9,2,6,2,0,-1,0
51616248715,10,31,4,6,0,0,1,3
51616249350,-12,-26,4,-10,-4,2,-2,-5
51616249350,2,19,-2,3,-2,-3,0,1
51616262807,-10,-21,-8,-7,-5,-1,0,-4
51616262807,2,8,-6,-3,3,3,-1,0
51616269651,0,1,11,4,-1,-2,-3,-1
51616269651,-2,-11,-3,-4,-2,4,0,0
51616284890,-2,-2,-2,0,1,-2,-2,0
51616284890,-1,-1,0,3,-2,-3,-1,0
51616292261,-1,12,2,-9,-2,-3,-2,0
51616292261,-1,-5,-3,-1,0,4,-2,-3
51616314903,2,-3,-4,1,0,-3,-2,-1
51616314903,3,10,9,4,0,-4,2,1
51616325101,1,2,-3,2,-1,-1,-1,0
51616325101,2,9,4,-1,1,-2,3,3
51616326692,-9,-25,-11,-6,-6,-4,-5,-7
51616326692,4,9,-7,-4,0,4,5,0
51616331393,-3,-10,0,-1,-1,-6,-4,-3
51616331393,4,9,6,2,2,0,0,3
51616332704,13,12,-2,6,2,2,4,3
51616332704,-10,-18,2,-3,-3,-5,-5,-6
51616337219,0,5,1,0,1,7,2,2
51616337219,-5,-14,-9,-6,-3,-3,-2,-3
51616352386,5,11,2,8,1,-5,-2,-1
51616352386,10,13,0,-6,2,5,-2,3
51616367347,-6,-14,-9,1,-2,2,-3,-4
51616367347,-1,4,7,-4,-8,-8,-1,-2
51616404872,-7,-19,-4,-2,1,-4,-3,-5
51616404872,6,18,7,1,0,2,-1,2
51616415076,-7,-14,-11,2,-1,-1,-3,-4
51616415076,3,6,-2,0,-1,3,-1,0
51616416681,-5,2,1,-2,-2,-6,1,1
51616416681,-6,-18,-6,-2,-2,0,-2,-1
51616417285,11,17,-4,1,1,1,3,3
51616417285,-5,-14,-5,-4,-4,-10,-6,-5
51616421874,-2,0,-1,-3,4,9,2,1
51616421874,0,3,-2,0,0,1,2,0
51616422724,6,0,-2,-1,-3,-1,-4,0
51616422724,1,15,11,5,1,2,0,-1
51616434730,-6,-23,-20,-17,-8,-5,-6,-3
51616434730,-2,-7,0,3,0,3,1,-1
51616442286,15,35,10,6,3,3,7,6
51616442286,-10,-24,5,2,-4,-6,-5,-5
51616457183,-2,-1,1,-3,-3,2,0,-2
51616457183,1,8,2,1,1,-1,1,-1
51616464816,-9,-11,-2,-7,-6,-5,-3,-5
51616464816,6,8,-8,3,2,4,-1,3
51616479929,-1,1,7,8,-3,-1,-4,-2
51616479929,6,15,2,-3,-5,-4,1,2
51616487253,-2,5,-8,-3,-2,-3,-1,-2
51616487253,-7,-21,3,1,2,-2,-1,-2
51616496869,2,1,2,4,-1,0,0,0
51616496869,-3,-1,-4,-4,2,1,-1,-2
51616497729,0,-3,-2,-4,-2,-3,-2,-3
51616497729,-4,-3,-10,-7,-3,1,1,-1
51616517397,-1,6,2,-2,2,0,0,-1
51616517397,6,12,4,6,1,1,3,-1
51616539795,-15,-35,-15,-10,0,1,-2,-2
51616539795,2,-3,-3,-3,-3,-8,-4,-5
51616554768,7,17,1,6,2,6,0,1
51616554768,-9,-7,10,-1,-3,-2,-5,-5
51616562144,-8,-21,-15,-5,-1,-2,0,-3
51616562144,0,13,3,-1,-2,-1,1,0
51616587623,0,0,2,-1,-1,-4,0,1
51616587623,-1,-6,-11,-3,0,-1,-2,-1
51616588165,4,8,12,2,-4,-4,-3,-1
51616588165,3,0,0,3,2,7,4,1
51616589788,-2,9,-2,-7,-4,-5,-2,-1
51616589788,-8,-17,-3,0,2,-1,-3,-2
51616593705,6,4,-6,-1,1,1,0,1
51616593705,-5,-4,2,5,1,-1,-2,-2
51616595361,-2,0,0,-7,-1,0,0,1
51616595361,-3,-7,-9,-5,-5,-3,-1,0
51616599751,3,5,3,5,-2,-1,-1,0
51616599751,3,11,4,-5,-2,3,-2,-1
51616614943,1,-5,-3,4,1,-2,-3,-3
51616614943,-9,-11,-7,-4,-4,-2,0,-2
51616622462,2,1,4,4,1,0,1,1
51616622462,2,5,-1,-3,1,-1,0,2
51616644717,-1,-7,-1,-5,-4,-4,-3,-3
51616644717,0,-6,2,5,2,2,-3,-2
51616652377,2,12,-1,3,-1,0,0,-1
51616652377,-8,-15,6,2,2,0,0,0
51616668742,16,46,2,-6,-1,1,3,4
51616668742,-32,-76,-28,-14,-9,-10,-13,-15
51616669320,-4,-2,-4,-5,-2,-1,-3,-2
51616669320,-2,-1,-3,1,0,0,-3,-2
51616675457,-1,-5,8,3,1,-1,2,3
51616675457,13,39,10,4,4,5,3,4
51616676219,-10,-28,-10,-3,-1,-2,-3,-5
51616676219,-1,1,-5,-2,-1,0,1,-2
51616697873,-5,-6,4,4,-2,-3,-3,-1
51616697873,6,19,5,1,3,0,3,3
51616712273,3,4,2,-1,-1,0,2,2
51616712273,4,6,3,-4,-1,-2,-1,1
51616727389,-8,-27,-8,2,-5,-3,-4,-6
51616727389,-4,-3,-8,-12,-5,1,-2,-1
51616734873,2,8,1,1,0,-3,-3,-1
51616734873,4,11,2,-2,-1,3,4,1
51616760077,-6,-14,-2,0,-3,-10,-7,-4
51616760077,4,8,-1,3,0,-3,1,0
51616760624,-6,-9,10,0,-1,2,1,-2
51616760624,-2,3,-3,-5,-4,-3,-3,-1
51616762364,-2,-6,-3,3,1,-1,1,-2
51616762364,8,15,6,5,1,-3,1,2
51616765500,-4,-2,2,-6,-3,-2,-1,-2
51616765500,7,7,0,5,0,-1,-2,1
51616772231,-2,-14,-17,-10,-5,5,-1,-3
51616772231,-8,-18,5,-3,-5,-5,-6,-4
51616779977,10,20,-1,2,0,1,0,-2
51616779977,-17,-32,-7,1,0,-1,-3,-5
51616794840,8,20,7,-2,4,4,2,4
51616794840,7,14,5,2,-2,1,2,1
51616802230,-8,-20,-3,-2,-2,1,-3,-3
51616802230,5,17,5,0,2,0,-1,0
51616824707,-4,-3,-9,-4,-2,1,2,-2
51616824707,2,-1,4,2,2,2,1,0
51616832199,2,8,1,-5,0,2,0,1
51616832199,-4,-19,-11,-4,-4,-3,-5,-3
51616841844,-4,0,4,4,0,2,0,1
51616841844,5,2,-5,0,0,1,0,2
51616842584,1,11,10,6,-1,-5,-4,-2
51616842584,1,-6,-20,-7,0,3,2,0
