timestamp,emg1,emg2,emg3,emg4,emg5,emg6,emg7,emg8
68487637296,-3,-4,-5,-1,0,-2,-7,-4
68487637296,1,5,-18,-2,-1,-1,0,-1
68487638081,-1,-7,-19,-5,-5,-6,-3,-1
68487638081,-1,-2,-6,-1,0,2,0,0
68487638933,-1,0,-9,1,3,2,1,0
68487638933,-3,-11,7,-1,2,1,-1,-1
68487639620,-1,2,-7,0,-1,-1,-2,-1
68487639620,-2,-1,2,-5,-8,-5,-5,-1
68487650283,1,2,4,-4,-9,-3,0,-1
68487650283,-1,0,-1,-6,-6,-5,-2,-2
68487659079,2,3,10,19,26,9,2,1
68487659079,-2,2,-4,-9,-1,-4,-2,-3
68487666717,-1,3,-2,-2,-1,0,-2,-2
68487666717,-2,-10,11,-2,-14,-7,-1,-3
68487680433,0,-4,-26,-11,-9,-3,-1,-1
68487680433,2,3,6,2,-2,0,0,0
68487691853,-1,-3,1,1,0,1,0,-1
68487691853,0,6,-4,-1,2,2,-1,-1
68487695286,-2,-2,14,-1,-2,0,-2,-3
68487695286,-2,-3,-7,3,1,-2,0,-2
68487710540,0,0,-7,-2,-2,-1,2,0
68487710540,-2,0,9,2,0,-2,-2,0
68487718794,0,3,25,1,-3,-1,0,-2
68487718794,0,0,-3,-2,-3,-2,-2,0
68487758586,2,5,7,3,-1,0,0,-1
68487758586,-1,-1,5,-2,-3,0,-1,-1
68487759524,-1,-1,3,1,1,0,1,-2
68487759524,1,-1,13,-3,-7,-1,-3,-1
68487760168,0,-1,-14,6,9,0,1,2
68487760168,1,5,19,9,9,0,-1,0
68487763331,0,-1,-3,-4,-7,-3,-4,-2
68487763331,0,1,3,2,3,4,2,1
68487770146,-1,-1,3,-4,-10,-5,-4,-1
68487770146,1,-1,-7,-2,3,4,2,0
68487777682,2,-4,-18,-4,-2,-4,-1,5
68487777682,-12,-2,0,-1,-7,-6,-5,-11
68487786548,-2,-2,-5,-3,1,1,0,-1
68487786548,-4,-3,1,0,-4,-4,-5,-1
68487800281,-2,-1,2,0,0,0,-1,0
68487800281,3,2,-24,-1,0,1,1,3
68487809074,-4,-9,2,-3,-3,-2,-3,-3
68487809074,-2,-2,-4,-2,-2,0,1,-1
68487815281,-1,1,6,2,2,2,-1,0
68487815281,0,0,-6,-6,-3,-4,-1,-1
68487830009,-2,-2,2,2,2,2,0,-1
68487830009,0,-2,-3,7,8,-1,-4,-3
68487837525,-1,-1,-7,3,-6,-1,-1,-1
68487837525,-2,-4,-3,-6,11,0,-2,-1
68487846528,0,3,-2,-8,-12,-3,-1,-2
68487846528,-1,-6,-6,-1,1,1,3,0
68487860025,0,1,10,-2,-5,-3,-5,-3
68487860025,0,-1,-12,0,-4,0,1,0
68487869007,0,-5,-6,-2,0,-4,-3,-2
68487869007,0,2,-3,-3,-4,0,-1,-1
68487875207,-4,-1,-2,-1,-4,-3,-1,-3
68487875207,1,-1,2,3,0,-1,-1,2
68487890173,-3,-1,-6,-2,2,1,2,0
68487890173,3,0,-5,-4,-4,-2,-1,-1
68487897636,-1,-2,-5,-3,0,1,0,-1
68487897636,-2,-5,5,1,-3,-1,-1,-1
68487906546,0,2,0,-5,-3,-2,-2,-1
68487906546,-3,-1,3,9,3,-1,0,-1
68487920218,2,8,25,-3,5,2,2,-1
68487920218,-2,-13,-14,-2,-9,-3,-2,-2
68487929156,-3,-1,1,-1,7,0,-2,-1
68487929156,0,-2,-1,-5,-2,3,2,3
68487935087,0,-5,-28,-4,-3,-3,-3,-1
68487935087,0,5,22,1,-1,-1,-1,0
68487950221,1,-1,-4,-1,-6,-4,-1,-1
68487950221,-4,0,14,-6,-8,-4,-4,-3
68487957775,-1,0,-7,3,4,1,-1,0
68487957775,-1,-3,10,-3,-5,-3,-1,-1
68487966593,-1,-4,0,4,4,6,2,1
68487966593,0,2,3,-12,-3,-3,-1,0
68487980089,-1,0,7,3,2,0,-1,0
68487980089,-1,-5,-19,-3,0,-3,-2,-2
68487989067,-2,0,9,-1,-2,-1,-1,-1
68487989067,-1,-4,-13,-2,-1,1,-1,0
68487995068,-2,-3,-1,-2,-4,-1,-2,-2
68487995068,1,4,8,-7,1,3,2,0
68488010118,-2,-2,-6,7,6,-3,-3,-3
68488010118,-1,-2,-10,1,-5,-1,-2,-2
68488017637,3,8,9,-2,0,-3,-1,1
68488017637,-4,-3,-10,1,-2,-3,-2,1
68488026616,0,-2,2,-3,-7,-2,1,-2
68488026616,-1,-5,-16,-1,-4,-4,-2,-1
68488040319,-3,-5,4,-2,-1,2,4,-1
68488040319,0,3,13,13,18,6,2,-2
68488049140,-1,-1,-16,-4,-2,-2,-1,-1
68488049140,-1,-1,-5,-3,-3,-1,-1,-2
68488055053,-1,-3,1,-4,-3,-3,-2,-1
68488055053,-2,-1,-3,-3,-5,-3,0,-1
68488070249,-2,-5,1,1,-2,-2,-1,1
68488070249,0,4,2,-3,-7,-5,-2,-3
68488077871,-2,-3,-22,-3,1,0,3,1
68488077871,-1,0,-1,1,2,0,-1,-3
68488086537,-1,5,10,0,5,2,0,-1
68488086537,-4,-3,-2,4,-4,0,1,0
68488100249,-1,0,17,-4,2,0,-2,-2
68488100249,0,-3,-6,-4,-9,-4,-2,0
68488109026,1,3,-5,-5,5,2,0,1
68488109026,0,0,5,5,4,-1,0,1
68488123506,-3,-3,8,2,-6,0,-1,-2
68488123506,3,2,-1,0,-4,-2,-1,-1
68488130176,0,-2,-2,-2,-2,0,-3,-2
68488130176,0,-2,-6,-2,-4,-2,-2,-2
68488137787,0,-4,-8,2,2,0,-3,-2
68488137787,-2,-1,-2,-4,-6,-2,-1,-1
68488146612,-2,-1,-2,2,-2,-2,-1,0
68488146612,0,1,3,-5,4,1,-1,-1
68488160260,-2,-3,-6,2,-1,0,0,-2
68488160260,-1,-2,1,0,1,1,-2,1
68488169089,0,0,4,-5,-5,-3,0,0
68488169089,-1,-1,0,8,13,2,1,-1
68488183493,0,0,2,3,2,0,-1,0
68488183493,-2,-3,-19,-12,-14,-3,-3,-1
68488190241,-2,-3,-2,5,13,4,1,-1
68488190241,-3,-4,1,-7,-3,-2,-1,-1
68488197822,3,2,-1,-2,-10,-5,-2,-1
68488197822,-1,2,1,3,8,3,1,1
68488206552,-1,-2,-13,-14,-16,-7,-1,-2
68488206552,0,-2,0,19,26,5,-1,-2
68488220291,0,-1,2,-1,-4,-4,-1,-1
68488220291,0,2,5,-2,0,-1,0,0
68488229137,-2,-3,-2,-3,-13,-2,-1,-1
68488229137,0,1,4,0,0,-1,0,0
68488243541,-2,-2,-12,-6,-6,-4,-2,-3
68488243541,0,0,2,3,2,-1,-2,-1
68488250242,-1,0,15,3,4,1,0,-1
68488250242,0,-1,-4,-3,-7,-1,0,-1
68488257742,-2,0,2,2,5,2,-1,-1
68488257742,-1,-2,-12,-8,-2,-1,0,-1
68488266552,2,12,37,17,12,4,3,2
68488266552,-3,-4,-1,-14,-17,-7,-7,0
68488280262,-2,-2,-4,-2,3,1,0,0
68488280262,-1,0,1,2,3,-1,-2,1
68488289146,2,3,-7,-3,-5,-2,-2,-3
68488289146,0,-1,4,8,-2,1,3,4
68488303307,3,-4,-10,2,-1,-2,0,-2
68488303307,-2,3,3,-5,2,0,-1,-2
68488310238,-1,-8,-4,1,2,-2,-2,1
68488310238,-2,0,-6,-5,-3,1,0,-1
68488317561,-3,-3,-6,0,0,-1,-1,-1
68488317561,-2,-2,3,2,-5,-2,-2,-3
68488326517,0,-2,-8,-5,-3,-1,-2,-4
68488326517,-1,-1,-1,0,-4,-1,0,-4
68488340181,-1,1,7,-2,0,1,-1,0
68488340181,2,-2,-3,3,0,-1,0,0
68488349061,-3,2,-2,-1,-3,-2,-2,-1
68488349061,1,-1,-9,-7,-2,-3,-5,-2
68488363429,-3,-1,-5,4,7,6,5,1
68488363429,-1,-2,23,0,-3,-4,-4,-2
68488370230,-2,-6,-20,-6,6,5,2,1
68488370230,-1,0,-2,-2,-8,-6,-2,-2
68488377775,0,1,-1,-2,-4,-4,-4,-1
68488377775,-2,2,-1,4,0,0,0,-2
68488386599,-2,-4,-8,-3,-6,-4,-3,-1
68488386599,-2,-2,-4,-5,-1,-2,1,-1
68488400104,-1,1,0,-1,0,-1,0,-1
68488400104,1,1,1,0,-3,-2,0,-2
68488408996,-1,-1,1,0,-3,-3,-3,0
68488408996,-1,-2,-3,0,1,0,0,0
68488423376,-2,7,8,4,3,2,1,-2
68488423376,-3,-4,-1,0,3,3,1,-2
68488430243,-1,-2,8,3,-3,-1,0,0
68488430243,0,-3,10,-7,-12,-3,-2,-2
68488437773,-2,-6,-37,0,4,0,-1,-1
68488437773,-1,1,0,4,2,0,0,0
68488452760,-1,-3,-3,-1,-2,-3,-1,-1
68488452760,0,1,0,-4,0,-2,-4,-3
68488460069,0,4,15,-8,-14,-5,1,1
68488460069,0,-7,-5,2,9,5,-2,-1
68488469086,0,-4,-6,0,11,6,1,0
68488469086,-1,-1,2,2,2,1,0,0
68488483341,-1,-1,4,-5,-9,-6,-5,-3
68488483341,-2,-3,-8,-1,-6,0,2,0
68488490271,-1,1,6,-4,-13,-4,-3,-1
68488490271,3,9,3,1,3,1,-2,-1
68488497651,-4,-22,-15,-8,-1,-5,-5,-2
68488497651,-3,4,6,1,-3,-3,-1,0
68488512822,0,-1,-6,1,0,0,-1,-3
68488512822,-2,-1,-8,-6,-5,-2,-2,-2
68488520842,0,0,-1,5,-2,-4,-1,0
68488520842,0,-4,-8,-6,4,4,2,0
68488527741,-1,1,0,10,4,0,-1,0
68488527741,-3,-3,-5,-2,-2,-1,-3,-1
68488543308,0,8,6,6,3,2,1,1
68488543308,-2,-5,16,0,-3,-2,-3,-1
68488550114,-2,-1,-39,-16,-4,-3,-2,-4
68488550114,-1,-2,-6,-2,-5,-4,-1,-2
68488557760,-2,-1,4,0,-1,1,0,-2
68488557760,2,10,-1,-8,-6,-6,-2,-1
68488572757,-2,-3,6,12,5,4,1,-2
68488572757,0,0,12,-3,-4,-4,0,0
68488580314,-3,-6,-14,-6,3,4,1,-3
68488580314,1,3,9,7,3,-1,-5,0
68488589068,-1,-2,13,-9,-8,-7,-4,-1
68488589068,-1,0,1,3,4,1,2,-1
68488603319,0,1,22,-6,-9,-7,-5,-2
68488603319,-2,-8,-9,-7,-4,0,1,-2
68488610122,0,3,1,8,7,5,0,-3
68488610122,-2,-5,-12,2,-1,1,-3,2
68488617713,1,3,29,0,1,3,4,4
68488617713,-2,-3,-8,-4,-1,-3,0,0
68488632559,-3,1,3,-3,-4,-7,-4,-3
68488632559,0,2,-4,-8,4,3,5,2
68488640227,-1,-12,19,8,-13,-9,-10,-5
68488640227,-2,-10,-38,1,21,12,4,1
68488649074,-3,-10,-21,-7,-8,-3,0,2
68488649074,-1,-4,6,-6,-10,-8,-1,0
68488663392,-1,-1,21,-3,2,2,1,1
68488663392,-3,5,8,-2,-29,-16,-8,-3
68488670270,-4,-13,-28,-5,-10,0,0,-3
68488670270,2,8,30,-2,14,4,0,-6
68488677763,1,4,-19,1,8,6,-4,-1
68488677763,1,1,8,0,0,2,3,3
68488692527,-2,-1,9,-8,-5,-6,-1,1
68488692527,-2,10,-15,-1,-20,-12,-9,-6
68488699970,-2,6,-13,2,-7,-6,-2,-2
68488699970,-1,2,5,6,24,8,1,-3
68488709020,2,-3,4,4,-5,-4,-6,3
68488709020,2,-3,6,9,18,15,11,7
68488723232,0,0,-8,17,16,4,-3,0
68488723232,-3,-6,-34,-22,-45,-21,-5,-4
68488730024,-1,2,17,14,38,15,3,-4
68488730024,-6,4,8,13,-7,-6,1,-9
68488745883,-1,-9,-26,-41,-29,-3,-1,2
68488745883,2,-4,1,10,22,0,-2,0
68488752718,3,5,14,39,21,12,2,4
68488752718,-5,-11,-18,-18,-20,-11,-5,-4
68488769022,-2,6,4,7,9,3,4,-3
68488769022,-1,-1,4,-16,-13,-7,-3,-5
68488770472,-1,4,1,-14,-11,-8,-14,-4
68488770472,2,-4,0,15,22,10,0,5
68488782566,-1,-2,-4,-1,-3,-2,0,0
68488782566,1,3,29,4,-2,-3,-4,-1
68488791538,-4,-1,-22,-17,-11,-9,1,-3
68488791538,4,5,3,0,-4,0,-2,3
68488805743,-5,-12,-3,-13,-8,3,4,1
68488805743,4,2,7,43,22,11,4,3
68488812798,1,-1,4,-15,17,5,3,0
68488812798,-3,-5,-7,-53,-44,-12,-9,-4
68488829026,0,13,9,66,-15,-17,-5,-2
68488829026,3,3,5,17,62,52,21,9
68488830550,-2,-6,6,10,-36,-6,-2,0
68488830550,-1,-6,-5,-4,-14,1,-2,0
68488842569,-1,-1,-13,-38,-26,-15,-6,-4
68488842569,-4,-1,-4,-18,-43,-25,-11,-4
68488851558,-2,-8,-3,-21,2,-7,-1,0
68488851558,0,-2,16,22,47,18,5,1
68488865780,2,2,1,-8,6,0,0,1
68488865780,-4,-9,-1,17,1,-3,-6,-3
68488872550,-1,3,2,-18,-12,0,6,3
68488872550,-3,-7,-18,-37,-38,-16,-8,-3
68488888890,-1,-4,7,16,52,16,3,1
68488888890,-5,1,4,-31,-33,-14,-7,-2
68488890484,5,4,-4,53,47,15,7,1
68488890484,-3,-7,-2,9,-23,-13,-4,-2
68488902773,2,5,-6,-12,-1,0,1,0
68488902773,-1,-1,-9,-22,6,2,-1,-3
68488911539,-3,0,5,-7,-21,-8,-4,-1
68488911539,4,6,8,6,13,4,1,0
68488925806,-3,-8,8,-1,7,2,0,-2
68488925806,-2,0,1,-8,-50,-22,-11,-5
68488932806,0,1,-4,11,24,10,3,1
68488932806,0,1,0,6,15,3,0,2
68488949097,-3,0,2,-35,-26,-5,-1,-2
68488949097,-2,-6,-6,31,-6,-5,-2,-1
68488950533,1,-3,7,13,15,1,-1,-1
68488950533,-3,0,6,9,7,-2,-1,-2
68488962834,1,0,-48,-1,-8,-1,-1,-1
68488962834,2,-2,-9,-12,5,1,3,0
68488971561,-5,8,19,-12,-30,-7,-3,-2
68488971561,-2,-11,-5,10,10,0,0,-2
68488985990,-5,-1,-9,14,25,9,4,2
68488985990,3,-2,-6,-27,-8,-1,0,-3
68488992606,1,4,5,13,4,-6,-4,0
68488992606,-3,-4,-13,-17,-15,-2,1,-2
68489008864,-1,-2,5,5,6,-1,-1,2
68489008864,-3,-1,10,-12,7,1,0,1
68489010465,1,0,-9,-11,-29,-7,-3,-3
68489010465,-2,-1,-11,12,22,5,5,3
68489022598,3,-3,11,-3,0,-2,-4,-4
68489022598,-4,2,4,3,0,-2,0,-2
68489031511,1,-4,-10,-14,-19,-8,-3,-3
68489031511,-2,-1,6,0,-18,0,-1,0
68489045762,-1,2,14,15,6,2,1,-2
68489045762,-1,-4,-26,4,16,5,0,1
68489052740,-2,2,-2,-12,-1,0,0,-1
68489052740,-1,-7,-7,-3,-3,-1,0,-2
68489068883,1,4,9,1,-10,-8,-5,-2
68489068883,-1,-1,25,7,-4,-3,-2,0
68489070522,-4,-6,-38,-46,-31,-5,0,0
68489070522,-2,-4,-2,46,72,11,1,-1
68489082580,1,2,-5,-9,8,3,0,1
68489082580,0,0,10,-10,-24,-11,-5,-3
68489091553,-2,-4,7,23,15,3,3,0
68489091553,-2,2,-3,-11,-27,-4,-2,-1
68489105891,-4,-6,-10,-11,1,-4,0,-4
68489105891,0,0,-1,3,0,0,-4,1
68489112611,1,5,30,5,8,1,0,2
68489112611,0,-2,-27,-10,-7,-2,-2,-1
68489129135,-4,-8,14,13,-6,0,-2,-1
68489129135,2,-4,-15,-16,-10,0,0,-1
68489130596,-1,1,-1,-12,-3,0,2,0
68489130596,0,3,10,19,15,1,-3,-2
68489142534,-3,-7,1,-1,-14,-3,-1,0
68489142534,-2,0,-8,12,9,-4,0,-1
68489151556,-4,-8,3,-6,13,5,1,-1
68489151556,4,8,-8,-14,-17,-6,-3,1
68489165901,-1,1,-2,-12,-25,-2,-1,-1
68489165901,-3,2,17,18,18,7,2,1
68489172749,1,-4,-6,12,14,-3,-2,-1
68489172749,0,0,2,-12,-10,-6,-1,-1
68489188884,1,0,-2,-3,-15,-5,-3,-1
68489188884,-1,-2,-1,1,6,-3,0,-2
68489190512,-1,-1,-2,-13,-13,2,-1,0
68489190512,1,3,25,33,17,4,1,-1
68489202559,-4,-10,-41,-7,22,-1,-3,-2
68489202559,2,-7,-1,3,7,2,1,2
68489211550,-4,-1,-3,-5,-14,-7,-4,-2
68489211550,0,-3,4,-4,10,5,2,-1
68489225901,0,3,10,2,-12,-3,-1,0
68489225901,-2,-1,-21,-8,0,2,-2,0
68489232643,1,-5,-6,0,-7,-6,-2,-1
68489232643,-1,0,1,-11,-15,-8,-4,-3
68489249084,-1,2,-4,-3,9,4,2,-2
68489249084,-2,-2,-10,-9,-13,0,1,-1
68489250566,0,5,1,3,8,0,-2,1
68489250566,-3,-2,4,-8,-12,-2,-4,-3
68489262658,1,-1,-10,1,6,3,6,2
68489262658,0,0,1,5,-6,-5,-5,-1
68489271579,-3,-1,-11,-5,-7,-3,-1,-2
68489271579,-2,-2,-3,-5,-1,-2,0,0
68489285764,2,2,2,-9,-10,-6,-4,-2
68489285764,-2,-1,0,-3,-2,5,5,1
68489292772,1,4,18,14,8,-8,-5,-3
68489292772,-3,7,6,16,38,6,1,0
68489309044,-1,-4,5,10,-8,1,-1,-1
68489309044,-2,1,-5,-9,18,4,1,-1
68489310479,1,-3,3,1,-8,-4,-5,-3
68489310479,-3,-2,-5,-6,-21,-2,1,1
68489322594,0,1,3,2,0,-4,-3,1
68489322594,0,1,1,1,0,-2,-1,1
68489331553,-2,-2,2,-7,-13,0,-2,-3
68489331553,0,-6,-12,-10,-9,-5,-2,-1
68489345923,-2,1,14,5,4,1,0,-1
68489345923,-2,-7,-34,-24,-24,-3,-4,-3
68489352633,1,1,2,16,11,5,2,1
68489352633,-1,-3,16,10,-2,-5,-6,0
68489368496,3,2,0,2,18,5,3,3
68489368496,0,4,7,-2,-7,-3,-2,-2
68489375088,-2,-4,-7,-8,-7,-3,0,-1
68489375088,-4,-5,-11,-3,-9,-3,-3,-1
68489382802,-3,2,-3,-10,-9,1,0,-2
68489382802,-3,-7,32,15,-2,-7,-5,-3
68489391610,0,-3,-17,-7,10,2,1,-1
68489391610,0,0,-4,-21,-12,0,2,-2
68489405971,-1,-4,2,8,2,-1,0,0
68489405971,0,3,2,-6,1,-6,-3,-1
68489412716,1,-3,0,6,10,3,2,0
68489412716,0,-3,-12,-6,-15,-2,-1,-1
68489428247,-2,0,-6,3,6,4,1,-2
68489428247,2,3,6,7,26,4,0,0
68489435185,-3,-2,-6,0,1,-2,-4,-1
68489435185,1,2,4,0,1,-3,-1,-1
68489442705,-1,-2,-3,-2,-3,-1,-1,-1
68489442705,-1,-1,-2,-1,-11,-8,-2,-2
68489451598,-3,1,-3,-13,-11,-4,-4,0
68489451598,0,5,21,35,39,11,2,2
68489466610,-3,-8,-17,-18,-27,-12,-7,-3
68489466610,-3,-7,-4,3,3,0,3,1
68489472570,-1,-3,-18,-5,-5,0,0,1
68489472570,1,0,-7,-11,-11,-1,1,-1
68489487598,-1,1,4,3,2,-3,-3,-2
68489487598,0,3,-1,3,3,4,1,1
68489495229,-3,-3,-2,-4,-11,-1,-1,-2
68489495229,-3,-5,-11,-34,-34,-5,2,0
68489510843,1,3,19,30,17,2,-3,-3
68489510843,-4,-1,-4,-13,4,1,3,0
68489511673,1,-2,7,5,5,-1,0,-1
68489511673,-2,-1,-8,-17,-24,-5,-3,0
68489526572,-2,-1,-3,-15,-4,-3,-1,0
68489526572,1,3,2,7,-4,0,0,0
68489532751,-1,3,0,-2,-3,-3,1,-1
68489532751,-2,-6,-9,7,12,-2,-2,-2
68489547724,-1,2,2,-2,-1,1,0,-1
68489547724,-1,-12,-3,-4,-7,-1,-2,-1
68489555179,0,-1,-2,7,16,0,-3,-3
68489555179,-1,0,-2,7,-2,1,1,-1
68489570968,-2,-3,-7,-8,4,3,-2,0
68489570968,-1,2,3,-12,-39,-10,-6,-4
68489571587,-1,-1,-1,15,11,4,2,0
68489571587,0,2,1,-3,2,-3,-2,-1
68489586554,-1,-1,-13,-4,-6,-1,1,0
68489586554,0,4,0,-5,-4,-2,-2,0
68489592749,-1,-2,5,-4,-5,0,1,1
68489592749,0,-1,10,8,13,-1,-3,-2
68489607621,-1,0,3,-1,-1,-8,-4,-2
68489607621,1,5,-3,-3,11,5,2,0
68489615251,-4,-4,-1,5,-9,-7,-5,-4
68489615251,0,-5,-10,3,-4,3,4,-1
68489630909,0,1,2,-10,8,-2,-3,-1
68489630909,0,-2,-4,4,1,-2,-1,0
68489631437,0,-1,1,-6,-11,0,-1,0
68489631437,-1,0,-4,-6,1,-1,-2,-1
68489646601,-4,-11,2,5,-13,0,1,1
68489646601,1,-1,-12,18,37,8,2,-1
68489652790,1,4,14,-7,-14,-6,-3,-2
68489652790,-3,-2,0,-2,3,-2,-3,-2
68489667805,1,0,-2,-5,-4,-1,-1,-1
68489667805,-2,-2,-1,2,-8,-5,-4,-1
68489683483,-2,-1,5,-3,-2,3,4,0
68489683483,3,2,-6,-5,-4,-3,-2,1
68489690673,1,3,4,7,8,3,3,-1
68489690673,-3,-10,-23,-5,-10,-3,-3,-1
68489691631,-2,-2,0,0,11,2,-2,-2
68489691631,1,1,7,-3,-2,-1,-1,0
68489706601,0,1,-9,1,-10,-4,-2,-2
68489706601,-2,0,2,4,10,1,-1,-2
68489712802,1,1,1,-6,-2,-3,-2,-1
68489712802,-3,-5,-11,4,4,4,1,-1
68489727801,-1,-1,13,2,-1,-3,-2,1
68489727801,-3,1,-6,-7,-10,-4,-1,-1
68489735150,-2,-3,0,5,-1,-1,-2,-1
68489735150,-1,2,8,-2,-8,-2,-2,-2
68489750785,-1,4,-2,-4,8,2,-1,-1
68489750785,0,-3,11,5,-1,-2,-1,0
68489751520,-1,-3,-18,-4,1,1,1,0
68489751520,-2,-5,4,3,-2,-3,-3,-1
68489766538,-2,-3,3,1,-5,1,-1,-1
68489766538,-2,2,-1,-1,16,0,-1,-1
68489772683,-2,0,0,-14,-4,-1,0,-2
68489772683,-1,-2,2,14,-2,-2,-3,-2
68489787826,0,-5,-3,-2,4,-2,0,-1
68489787826,2,1,-1,-6,-11,-1,-1,0
68489795120,-2,-2,4,7,-2,1,2,-1
68489795120,0,0,0,-1,25,5,0,0
68489810926,-4,-2,2,-1,-5,-2,0,0
68489810926,0,0,2,-7,-11,-1,-3,-1
68489811598,-2,-2,-4,-1,-7,2,2,0
68489811598,2,0,12,13,18,12,5,3
68489826656,-1,-5,-19,-7,-5,-4,-3,-3
68489826656,-2,1,5,3,13,2,3,-2
68489832653,-4,-2,-17,-12,-21,-7,-6,-3
68489832653,-3,3,11,10,7,-4,-1,-1
68489847756,0,0,2,0,3,1,0,0
68489847756,-1,-7,-10,-7,-24,-4,0,-3
68489855145,2,-8,0,12,24,1,-2,-2
68489855145,-2,-6,-7,-10,-22,-6,-4,-2
68489870946,0,0,-9,-2,7,-1,0,-2
68489870946,-2,-3,4,8,2,-2,-2,0
68489871554,-1,0,-6,-15,-16,-5,-3,-2
68489871554,-1,-2,3,4,-2,-4,-2,-3
68489886535,0,-2,-7,-11,-11,-3,-3,-1
68489886535,1,1,7,5,16,4,1,0
68489892764,0,0,9,-1,0,-2,0,1
68489892764,0,0,-5,7,13,4,-2,-2
68489907802,-1,1,2,-5,-10,-4,-2,-1
68489907802,-2,-1,-16,-2,2,1,1,-1
68489915149,1,3,8,3,2,-3,0,0
68489915149,-5,-5,-18,-14,-10,-6,-3,-3
68489930916,0,3,9,6,6,5,2,1
68489930916,-2,1,1,-4,2,0,-4,0
68489931593,0,-3,-4,4,4,-3,-2,0
68489931593,-3,1,-1,1,-14,-2,-1,0
68489946549,0,-2,-2,-2,6,-4,-3,-3
68489946549,0,4,0,-5,-1,0,2,-2
68489952555,2,4,1,-11,-10,3,-1,0
68489952555,-1,-1,0,1,7,2,-1,1
68489967732,0,-2,2,0,-3,-1,-3,-2
68489967732,-3,-3,1,-4,-6,-2,-1,-2
68489975248,-1,0,-2,12,1,-2,-2,-1
68489975248,-1,1,10,-19,-10,-5,0,0
