timestamp,emg1,emg2,emg3,emg4,emg5,emg6,emg7,emg8
68531303509,-1,-2,-2,-5,0,2,2,0
68531303509,-2,0,0,-3,-3,-2,-1,-2
68531304544,0,1,0,-2,-3,-2,-2,-3
68531304544,-2,-1,-6,-2,0,-1,-1,-2
68531305160,-2,-1,3,1,2,1,-1,1
68531305160,-1,0,2,0,-3,-1,-1,-2
68531308696,0,-2,-3,-6,-6,-6,-4,-3
68531308696,1,-1,-1,2,4,4,1,-2
68531315056,1,0,0,-1,-5,-2,-1,-3
68531315056,-3,-2,-4,0,3,3,2,0
68531323952,0,-1,3,0,-5,-2,0,-1
68531323952,0,-1,-3,-1,-2,-3,0,0
68531331558,-1,-2,-5,-2,-2,-3,-1,-1
68531331558,1,-4,-3,1,-1,0,-2,-1
68531345258,-2,-1,4,3,4,0,-1,1
68531345258,-3,-4,-13,-7,-11,-4,-4,-1
68531356715,-1,1,4,3,4,6,2,0
68531356715,0,0,0,0,0,-3,-3,-1
68531360345,-3,-1,-3,1,0,2,0,-1
68531360345,1,-3,3,-7,-7,-4,0,-2
68531375477,-1,-2,-1,1,-19,-8,-3,-4
68531375477,-3,-3,-3,0,24,5,1,0
68531383876,-1,-1,-9,-2,0,1,3,0
68531383876,-3,0,3,-1,-8,-4,-3,-2
68531423381,0,1,8,0,0,1,-1,0
68531423381,-2,-6,-16,1,-2,-3,-1,-1
68531424207,0,0,1,-1,-3,-2,1,-2
68531424207,-2,-2,3,-8,-4,-1,0,-2
68531425249,-1,0,-3,-1,2,-4,-2,1
68531425249,-2,1,6,-2,-1,1,-1,0
68531428328,0,0,-2,-1,-2,-2,-1,0
68531428328,-1,-5,-2,-1,1,2,1,0
68531435089,-1,1,-2,-1,-3,-3,0,-2
68531435089,-2,0,3,0,1,0,0,-1
68531442635,-2,-3,-5,-3,-3,-1,-3,-2
68531442635,1,0,-9,0,-2,-1,-1,-1
68531451382,-1,-2,-4,1,0,-1,-1,-1
68531451382,1,4,2,-2,-3,-5,-4,0
68531465222,-3,0,0,0,0,-1,0,-1
68531465222,-2,1,4,1,1,4,2,0
68531473894,-3,-4,-10,1,-3,-4,-2,-1
68531473894,-2,-2,0,0,3,-1,0,0
68531480176,-1,0,0,-2,-5,-4,-2,1
68531480176,-1,-2,-3,-1,-1,-3,-2,1
68531495132,-2,0,1,0,-5,-1,-1,0
68531495132,0,0,5,-2,2,-1,-2,-2
68531502587,0,-3,-6,2,3,2,1,0
68531502587,-1,0,-2,9,-2,0,-1,0
68531511353,0,-1,8,-3,16,2,-1,0
68531511353,-1,-3,-5,-3,-12,-3,-1,-3
68531525073,0,2,6,3,6,2,1,0
68531525073,-1,-4,0,-8,-8,-7,-2,-1
68531533927,-2,0,0,2,-3,0,-1,-3
68531533927,-1,-1,2,1,-5,-3,-3,0
68531539948,0,1,-1,-1,6,0,1,-1
68531539948,-1,1,-1,-1,0,-1,0,-2
68531554953,-1,-2,1,-5,-9,-3,-2,0
68531554953,-1,-1,-13,-5,1,-2,0,-1
68531562456,-1,-2,-3,1,-8,-4,-3,-1
68531562456,-1,-2,0,-6,4,2,1,0
68531571448,0,-1,-1,-2,-2,1,-1,-1
68531571448,0,-1,5,6,-1,4,3,0
68531585050,-2,-3,-1,-4,-6,-6,-4,-2
68531585050,-1,-1,-2,0,1,2,-1,-3
68531593879,-1,-2,-2,-2,-3,-2,1,-2
68531593879,-1,-2,-2,-5,-10,-3,-2,-1
68531599934,-1,-1,-4,-2,8,1,0,-2
68531599934,-2,-3,2,3,0,-2,-2,0
68531615124,-1,-2,-7,2,-3,3,1,-1
68531615124,0,0,8,-1,-1,-1,0,-1
68531622502,-1,-3,-7,-7,-12,-6,-4,-3
68531622502,1,2,0,-1,-5,-2,0,-1
68531631451,1,-1,1,-1,8,2,2,0
68531631451,-1,-1,2,5,-2,-1,-1,-1
68531645182,0,-1,3,-2,-3,0,-1,0
68531645182,-2,-2,-2,2,2,-3,-3,-1
68531653995,-1,-1,-1,-4,2,0,0,-2
68531653995,0,-2,-4,-2,3,0,0,0
68531660117,-2,-1,-1,1,2,1,1,0
68531660117,0,3,-1,-2,-4,-3,-3,-1
68531675099,-2,-2,-4,0,-5,-3,-3,-1
68531675099,-2,-1,-4,-2,4,1,0,1
68531682612,-2,0,8,1,-1,4,0,0
68531682612,0,-2,-13,-6,-8,-6,-2,1
68531691419,-2,2,2,1,4,1,-1,-2
68531691419,0,-1,-1,-3,0,-3,-3,-1
68531704880,-1,0,0,-1,-4,-2,-1,-2
68531704880,-1,1,6,1,0,1,0,-1
68531713891,-1,-2,-2,-1,-6,-5,-2,0
68531713891,1,0,-5,-3,1,-1,-1,-2
68531720109,-1,-1,1,2,4,4,2,-1
68531720109,-1,-5,-2,1,-1,-2,-4,-3
68531735076,0,2,-7,-4,-4,-1,-2,-3
68531735076,-3,2,3,-3,-2,-2,1,-1
68531742660,1,-5,3,1,1,-1,-3,0
68531742660,-1,1,3,-1,0,0,1,-1
68531751416,-1,-3,-4,3,3,4,1,2
68531751416,-1,-2,-4,1,1,-1,-2,-3
68531765194,1,-1,7,-3,-1,-3,-3,-1
68531765194,-3,-2,-5,-3,-2,0,0,-1
68531773953,-1,-3,-10,-5,-5,-2,-4,-3
68531773953,-2,5,6,4,5,3,0,1
68531788301,-3,-13,-8,-4,-2,-3,-1,-2
68531788301,-1,0,12,2,0,0,0,1
68531794998,-2,1,2,1,0,1,0,1
68531794998,0,-2,-1,-9,-4,-5,-3,-2
68531802489,-1,1,-9,0,5,3,1,1
68531802489,0,0,-5,0,0,-2,-2,-2
68531811409,-2,-4,-2,0,-3,-2,1,-2
68531811409,0,-3,-4,-3,-4,-2,-1,-2
68531825138,0,2,4,2,1,5,4,0
68531825138,0,-3,4,-1,0,-3,-4,-3
68531833917,-3,1,1,-3,-3,-3,0,-2
68531833917,0,-2,-2,-4,-5,-4,-2,-2
68531848262,0,1,-9,-1,0,-1,-1,-1
68531848262,-2,0,3,3,2,-1,-1,-2
68531855114,-1,1,5,-3,-10,-11,-6,-2
68531855114,-1,-2,-8,10,17,16,12,4
68531862620,-2,-3,1,-7,-5,-4,-4,1
68531862620,-1,-2,-4,2,5,8,4,0
68531871440,0,1,-5,-8,-1,-3,-1,0
68531871440,-2,-6,8,1,-3,-3,-3,-2
68531885147,-1,3,2,19,-1,-3,-3,-3
68531885147,1,1,-1,2,-6,-4,0,-1
68531893975,1,-2,7,-17,-7,-5,-3,1
68531893975,-3,9,19,19,8,9,4,1
68531908325,-3,-11,-16,-7,1,-1,0,-1
68531908325,-3,-6,-28,-2,-2,-2,-5,-7
68531915119,5,11,15,2,-6,-3,2,5
68531915119,-4,-9,-8,-5,-1,-2,-3,-2
68531922601,-1,0,0,-3,-10,-6,-1,1
68531922601,-4,-5,-15,-32,-5,-3,-3,-4
68531931444,-1,0,34,34,12,4,3,1
68531931444,3,2,-10,7,18,3,1,8
68531945127,-1,-4,-23,-1,-18,-9,0,-1
68531945127,5,11,5,-6,12,-4,-4,4
68531953940,-1,-1,-13,-3,-11,3,4,-1
68531953940,0,3,22,11,17,1,-4,-4
68531968271,-2,14,-3,6,16,4,0,-3
68531968271,-3,-13,-9,0,-13,-5,1,-2
68531975070,-3,-8,-10,-20,-12,1,1,-2
68531975070,-2,6,2,8,-3,-1,-3,-4
68531982622,2,-1,17,-20,-35,-12,-2,2
68531982622,0,6,8,41,63,18,9,2
68531991458,-4,-3,-9,2,-10,-4,-7,-8
68531991458,-5,-12,-7,-79,-72,-29,-7,-6
68532004882,4,0,-13,38,71,26,3,7
68532004882,-3,-9,2,2,0,6,1,0
68532013893,1,0,11,31,35,10,4,2
68532013893,-2,-2,-48,-10,-18,-13,-12,-4
68532028102,-6,-2,3,-23,-20,-4,-6,-10
68532028102,4,17,2,-9,-25,-10,-5,3
68532035116,-7,-18,-9,18,19,3,-4,-1
68532035116,-1,0,3,-38,-24,-8,-4,-3
68532042452,-4,-1,-1,7,-9,-9,-5,-3
68532042452,1,-3,-11,-1,8,8,7,1
68532051486,1,7,2,-36,-37,-8,-1,3
68532051486,1,-5,-8,34,-4,4,12,7
68532065241,5,0,4,-3,31,6,8,6
68532065241,-4,-2,13,-1,-13,-4,-6,-6
68532073874,-3,-7,-14,-3,-4,-3,0,-3
68532073874,1,-2,-2,-2,-10,-4,-1,1
68532088091,-2,-2,-2,-7,-6,0,0,-3
68532088091,-1,-4,6,2,-8,-3,0,2
68532094884,0,6,2,-13,-9,-4,1,-3
68532094884,5,1,-5,5,15,4,-5,2
68532102414,-1,-1,8,2,-7,-1,1,-2
68532102414,-1,-2,13,-4,-10,-11,-8,-4
68532117452,-1,-1,-9,-19,-27,-8,-4,-2
68532117452,1,5,14,43,77,27,10,1
68532125135,-3,0,0,22,19,6,2,1
68532125135,-1,-1,-8,-25,-29,-4,-1,0
68532133940,1,2,7,21,37,11,5,3
68532133940,-4,-5,-1,-18,-29,-11,-5,-5
68532148307,0,0,1,-18,-41,-16,-4,-4
68532148307,0,3,5,33,21,6,3,0
68532155078,-2,-4,-14,-2,12,2,-3,-3
68532155078,1,0,12,-6,-16,-2,-1,0
68532162399,1,1,-4,12,28,11,2,0
68532162399,-1,-1,-10,-32,-13,-1,-2,-2
68532177514,-2,1,4,30,-3,-10,-7,-3
68532177514,-4,-2,2,8,17,2,-2,-2
68532185030,0,1,-2,-27,-15,-2,-4,0
68532185030,-3,-2,-1,23,16,2,-1,-3
68532193880,1,-1,-9,-19,-25,-10,-3,-1
68532193880,-2,0,6,18,20,11,3,-2
68532208298,-2,-2,11,-16,-21,-9,-6,-3
68532208298,-1,0,3,6,1,-2,0,1
68532215163,0,-2,-5,-18,-32,-6,-2,-2
68532215163,-1,-3,-13,-3,13,1,1,-2
68532222560,-1,-1,2,4,-7,-3,-2,-1
68532222560,-2,-2,-3,-26,-23,-5,0,0
68532237566,-2,0,1,24,19,6,5,1
68532237566,-2,-2,-3,3,13,-6,-4,-4
68532245083,-2,0,-1,-1,-6,2,1,0
68532245083,-1,0,-1,-26,-21,-10,-4,-3
68532253954,-1,1,2,18,34,3,-1,-1
68532253954,-2,-5,-19,0,-11,2,1,0
68532268319,-1,-3,3,-6,1,1,0,-2
68532268319,-3,-1,16,8,-11,-5,-4,-4
68532275116,2,-1,-9,-9,15,1,2,1
68532275116,0,3,10,6,-9,-7,-2,-1
68532282467,0,-2,-5,2,3,-7,-4,-3
68532282467,-2,-4,-11,-14,-9,4,2,1
68532297572,1,1,10,11,2,7,2,-1
68532297572,1,-3,-1,-9,-9,-7,-3,0
68532305058,0,-2,1,-4,-13,-1,-1,-2
68532305058,0,-1,-2,8,10,-3,0,-1
68532313862,-2,0,2,-14,-5,-1,-1,-3
68532313862,-4,-3,-12,-7,-4,0,-1,-2
68532328175,0,-1,-1,-14,-17,-3,4,0
68532328175,-1,-3,1,21,33,3,-1,-1
68532335221,-1,-3,0,-7,-8,-5,-3,-1
68532335221,-1,-1,1,-4,-12,1,-1,0
68532342608,-2,0,-7,-17,-18,-12,-6,-3
68532342608,1,1,8,26,9,1,1,4
68532357577,-1,-2,-5,-11,21,3,0,-1
68532357577,0,-1,3,-1,-14,-5,-2,-4
68532365046,-2,0,-1,0,-2,1,-1,0
68532365046,0,-1,-8,-15,-11,0,0,0
68532373958,0,0,-3,-1,-8,-1,-2,0
68532373958,-1,-1,3,-7,-6,-3,-1,-1
68532388302,0,1,0,13,15,5,2,1
68532388302,-1,-1,-8,-16,-25,-7,-3,-2
68532395064,-1,0,7,14,23,6,3,1
68532395064,-1,0,3,-12,-11,-7,-3,-4
68532410797,1,1,-4,7,11,3,1,1
68532410797,-4,-2,3,-5,-8,1,1,-2
68532417571,-1,-2,-6,-15,-15,-6,-3,-2
68532417571,0,2,-11,2,-11,-3,-1,0
68532433967,1,-3,-2,-6,12,-1,-1,-1
68532433967,0,0,-4,12,1,3,1,0
68532435386,-2,-2,-7,-16,-6,2,-1,-1
68532435386,0,-1,11,6,0,0,0,-2
68532447625,-2,-1,2,13,0,-4,-4,-3
68532447625,-1,-3,1,-2,3,-3,-1,-2
68532456478,-2,0,-12,-9,-16,-8,-4,-1
68532456478,-1,-3,-4,-3,5,4,1,2
68532470638,-2,-2,-5,-14,-22,-5,-3,-2
68532470638,-2,-4,-2,-2,11,5,2,-1
68532477599,0,0,4,12,1,-3,0,-2
68532477599,-1,-2,-2,-7,-3,2,2,0
68532493970,-1,-1,5,3,-2,-7,-5,-2
68532493970,-2,-1,2,2,1,2,-1,-1
68532495337,0,0,5,4,-7,-1,-1,-1
68532495337,0,2,-13,2,12,3,1,1
68532508111,-1,1,4,-1,6,0,1,-1
68532508111,0,1,0,5,-3,-5,-3,-2
68532514969,-2,-1,-1,-8,-3,-2,-2,-2
68532514969,-1,-1,8,1,2,1,-1,0
68532530705,-2,-2,0,20,16,6,4,2
68532530705,0,-1,-5,-4,4,-5,-3,0
68532537509,-1,-1,1,-10,-14,-5,-3,-1
68532537509,1,0,6,17,21,1,-1,-2
68532553894,-2,0,-1,-11,-7,-3,-3,-2
68532553894,-1,-2,-8,-13,-5,1,0,-1
68532555402,-2,-2,4,13,7,3,0,-1
68532555402,-2,-2,-3,-8,-12,-5,-1,-1
68532568211,1,1,0,5,-3,1,0,-1
68532568211,0,2,1,-4,-1,-3,-1,-2
68532575126,0,-3,-3,-2,8,1,0,1
68532575126,-1,-4,-2,-2,-9,1,0,0
68532590762,0,0,-1,-1,-4,-3,-3,-4
68532590762,-1,-1,-2,-2,-4,-6,-5,-2
68532597454,1,-2,-4,-7,-6,-1,-1,-1
68532597454,-2,-1,-7,-4,-10,-10,-5,-2
68532614000,-1,-3,0,2,6,1,1,0
68532614000,-2,-4,-1,-1,4,9,4,0
68532615436,-2,0,-5,-5,-4,-2,-3,-2
68532615436,1,1,-1,5,6,1,-1,0
68532628238,-2,-1,2,-1,-3,-2,-2,-3
68532628238,0,-1,1,1,-6,-7,-3,-1
68532635105,-1,0,5,11,6,5,1,-1
68532635105,-1,-1,-13,-15,12,1,0,0
68532650629,-2,1,-2,-7,-5,1,-1,0
68532650629,0,-1,-1,8,29,3,0,-1
68532657456,0,-1,-3,-6,-8,-4,-3,-1
68532657456,-1,-1,-4,-2,2,1,1,0
68532673852,0,0,-2,0,1,-1,-1,-1
68532673852,-2,-2,0,-15,-20,-3,-1,1
68532675406,-2,-3,-4,0,-2,-3,-1,-1
68532675406,-2,-1,4,-5,0,1,-1,-2
68532688180,-3,0,-6,-13,-5,0,0,-1
68532688180,0,-1,-3,4,-9,-5,-2,0
68532694932,-1,-2,-3,2,3,-3,-1,-2
68532694932,-1,-2,7,0,-4,0,3,-1
68532710670,-1,-2,0,-3,-4,-5,-5,-1
68532710670,0,0,5,6,7,2,-1,-1
68532717616,-1,-2,-6,-8,2,2,2,0
68532717616,0,2,5,5,0,-1,-1,-1
68532733867,-2,0,2,0,-4,-6,-2,-2
68532733867,-1,0,-10,-6,-9,1,1,-1
68532735365,-1,-2,-6,3,6,-2,-3,0
68532735365,-2,0,3,-4,-9,-4,0,-1
68532748329,-1,-1,-4,7,11,-1,1,0
68532748329,-1,0,1,5,20,8,3,1
68532754984,-1,0,6,5,-9,-5,-3,-1
68532754984,0,0,1,-3,-10,0,-4,-1
68532770823,-2,-3,-4,-2,1,3,2,0
68532770823,-3,-2,3,3,-3,-7,-5,-4
68532777527,-1,1,-3,-7,-13,-2,-1,-1
68532777527,-2,-2,0,2,8,-2,-2,-1
68532793937,1,-3,-3,-5,-1,1,3,1
68532793937,0,-2,0,6,-2,-5,-3,-2
68532795403,0,0,0,-7,-12,0,0,0
68532795403,-2,1,-1,7,22,1,-2,-1
68532807637,-3,-3,-2,-3,-9,0,-3,0
68532807637,-2,-1,-3,-13,-12,-2,-1,-3
68532816461,-1,1,4,8,17,0,2,0
68532816461,0,-1,7,2,-6,-1,0,1
68532830739,0,-1,-13,-4,0,-2,-1,-2
68532830739,-2,-3,-3,-3,-3,-1,1,0
68532837570,-1,-4,-2,-4,1,5,3,1
68532837570,-1,-2,-1,-8,-16,-7,-2,-1
68532854018,0,-1,2,-1,9,6,-1,-3
68532854018,0,1,5,12,10,0,-1,-1
68532855349,-1,-1,1,2,-3,2,1,-1
68532855349,-1,-1,-13,-5,6,2,3,-1
68532867547,-2,-3,-3,-13,-18,-5,-1,-2
68532867547,0,0,2,5,24,3,-1,-1
68532876439,0,0,4,-8,-10,-5,-3,0
68532876439,-1,0,-1,10,12,5,2,1
68532890859,0,0,1,-6,-5,-5,-3,0
68532890859,-1,0,-3,-8,-17,-3,1,-1
68532897578,0,-1,-5,6,13,2,1,1
68532897578,-1,-1,-3,-12,-16,-7,-5,-3
68532921205,-1,0,1,4,4,5,2,0
68532921205,1,-1,2,4,-6,-8,-5,-3
68532922844,0,-1,-3,-1,-1,2,1,-1
68532922844,-2,-3,-4,2,-5,-3,-3,-1
68532927579,0,-1,0,2,4,1,0,-2
68532927579,-4,-3,0,-11,-9,-4,-1,-2
68532936412,0,1,0,9,-5,1,-1,-1
68532936412,-1,-3,0,-2,3,1,0,-1
68532950674,-2,-2,2,3,-5,-8,-3,-2
68532950674,-2,-2,-5,2,2,2,2,0
68532957457,-2,-2,-6,-14,-3,-3,-2,-1
68532957457,-2,-1,5,1,1,4,0,-1
68532973972,-1,-1,-9,10,11,1,2,1
68532973972,-2,-1,-1,-10,-6,-5,-3,-2
68532975358,-2,-1,-1,6,6,0,1,-1
68532975358,-2,0,4,-6,-13,-4,-2,-1
68532987512,0,-2,2,8,2,0,0,0
68532987512,1,0,2,2,-1,0,-2,-1
68532996505,0,-2,-9,-5,0,-1,-2,-1
68532996505,0,0,-1,-1,-8,-4,-3,-1
68533010680,-2,1,1,4,5,7,5,1
68533010680,1,0,-4,-3,-8,-3,-1,-2
68533017513,-2,-3,-1,-9,-12,-1,-1,-2
68533017513,0,0,3,10,15,-1,-1,-1
68533033117,-1,-1,-1,-5,-10,-7,-3,-2
68533033117,-4,-3,0,7,7,4,2,-1
68533040094,-1,0,-3,-7,-8,0,-1,-3
68533040094,-1,-1,4,0,5,-1,0,-2
68533047497,1,-1,3,-2,-7,0,-2,-2
68533047497,-1,0,1,1,2,0,0,0
68533056385,-2,-1,1,5,3,-8,-6,-4
68533056385,-1,0,-1,0,-5,3,0,1
68533070812,-2,-3,0,-2,1,-4,-3,-2
68533070812,0,-2,-7,-15,-22,-3,0,-1
68533077445,0,1,4,14,15,5,1,-1
68533077445,-2,-3,-1,0,-6,-2,-1,-1
68533093265,-1,-1,0,-2,2,-2,1,0
68533093265,-3,0,-1,-8,-6,-3,-4,-1
68533100070,-3,-5,-2,-3,-4,-3,-2,-2
68533100070,-1,1,-7,-5,1,0,0,-1
68533107562,-1,-2,2,0,-1,-2,-2,-1
68533107562,0,-1,2,5,4,-1,-1,0
68533116466,1,1,-10,-4,2,2,2,1
68533116466,-2,0,-2,0,-3,-1,-1,-1
68533130845,-2,-2,-3,-3,-3,-3,-1,0
68533130845,-1,-1,2,-11,-17,-5,-3,-1
68533137567,0,0,2,10,6,-4,-3,-2
68533137567,0,-5,-3,-6,-12,0,-1,0
