timestamp,emg1,emg2,emg3,emg4,emg5,emg6,emg7,emg8
68617238877,0,2,-6,-1,-5,-4,-3,-2
68617238877,-2,-1,-7,-8,-2,-1,-1,-2
68617244495,0,-1,6,6,2,1,-1,-1
68617244495,-2,-3,-5,7,16,2,0,0
68617245197,-1,3,5,-2,-5,-4,-3,0
68617245197,0,2,16,2,-3,-1,-3,0
68617246806,-1,-3,-7,0,-3,0,-3,-2
68617246806,-1,-1,-4,-6,-5,2,2,1
68617257300,-2,-5,3,-3,7,1,-1,-3
68617257300,1,0,-7,-11,-7,-1,-1,-1
68617268832,-3,-2,-4,0,-4,-3,-1,-2
68617268832,0,2,4,-2,-8,-3,-3,0
68617272319,-3,-2,-8,-9,-1,-2,-3,-2
68617272319,-1,-3,-3,2,0,1,3,1
68617287387,-1,-1,7,-2,-4,-5,-4,0
68617287387,-1,0,-3,-1,0,1,2,0
68617296247,1,-1,-3,-1,2,-1,-2,-1
68617296247,-1,-3,-7,-8,-6,-4,-4,-2
68617303782,-1,0,5,15,1,2,0,0
68617303782,1,-1,-6,-4,1,-1,-3,-1
68617317566,-2,-1,-2,-4,0,3,4,1
68617317566,-1,0,4,5,7,-1,-3,-2
68617327558,-1,-1,-5,0,-3,-2,0,-3
68617327558,-1,-1,0,-4,-1,-1,-2,1
68617365002,-2,-1,1,-3,-2,-1,0,-1
68617365002,0,-1,-4,-11,-8,-4,-5,-1
68617365625,-3,-1,6,18,17,3,2,-1
68617365625,-3,-2,-3,-5,-11,-5,-3,-3
68617366381,-1,-2,-3,-5,6,-1,-1,-2
68617366381,-1,-2,-2,-2,-2,1,1,-1
68617369798,-1,-1,-1,-13,-11,-6,-3,-1
68617369798,-2,-2,-3,3,0,1,2,-1
68617377379,0,1,7,6,1,1,1,-1
68617377379,-2,-1,-5,-1,0,-3,-3,-3
68617386171,0,-1,-3,-3,1,-1,1,1
68617386171,1,2,4,3,-4,-1,-2,-2
68617392101,-2,1,-7,-14,-13,-4,-2,-2
68617392101,-1,-1,-4,1,11,-1,-2,-5
68617407135,0,-2,0,5,-4,0,-1,0
68617407135,1,0,-6,-9,-5,-2,0,-1
68617414848,-1,-6,-14,-11,-5,-2,-4,-2
68617414848,-2,1,26,26,1,2,3,-1
68617423684,-3,-5,-16,-15,-4,-4,-2,-3
68617423684,0,-2,1,-5,-3,0,-1,0
68617437333,-1,3,-10,-3,-7,-4,-3,0
68617437333,-1,-1,-2,-5,0,1,1,0
68617446190,1,1,-1,7,8,5,2,3
68617446190,0,0,3,-1,0,2,-1,0
68617452401,-1,-5,-5,1,0,2,4,-1
68617452401,-2,-2,1,-1,-3,-2,-1,-1
68617467374,2,2,4,-3,-7,-4,-3,0
68617467374,0,-1,-2,-1,7,4,0,2
68617474635,0,0,6,7,4,-3,-2,-2
68617474635,0,-1,-10,-8,-5,-5,-5,-3
68617483626,0,-1,-2,-7,-4,-2,-1,-2
68617483626,0,-1,3,10,6,1,0,-1
68617497137,-1,-2,5,3,3,1,1,1
68617497137,2,-2,-3,-5,-3,0,-1,0
68617506065,-3,1,-8,-9,-7,-4,-2,-2
68617506065,-5,-4,6,5,0,-4,1,-4
68617512195,-4,0,0,-5,1,-1,0,-1
68617512195,2,3,2,3,3,3,-1,4
68617527374,0,-1,-2,-6,-2,2,0,1
68617527374,-2,0,-20,-4,0,-3,-1,-5
68617534864,-1,1,13,3,-2,-3,-1,-2
68617534864,-2,1,-2,-6,1,-4,-2,2
68617543628,-2,-8,-6,-1,-3,-2,-2,-3
68617543628,1,0,-6,-6,3,5,2,2
68617557397,0,-1,15,14,-1,-1,-3,-1
68617557397,-1,-2,-6,-5,-5,-2,1,-2
68617566205,0,0,-3,7,0,-1,-3,-3
68617566205,-2,-1,-2,-10,-10,-6,-3,-5
68617572288,3,-1,-5,3,9,10,10,6
68617572288,3,-1,-2,2,3,3,2,4
68617587182,-2,-2,17,5,8,1,-1,-1
68617587182,-2,-1,-12,3,4,-4,-4,-2
68617594575,-3,-2,-17,-8,-11,-6,-5,-7
68617594575,-4,-3,0,2,-8,-5,-4,-9
68617609584,1,2,-9,-28,-17,2,8,8
68617609584,3,0,4,18,35,13,3,4
68617617078,1,2,19,22,-18,-4,-4,-2
68617617078,-2,4,-16,-56,-25,-11,-1,-2
68617626164,-2,-8,-5,23,5,-1,-5,-6
68617626164,-5,-3,-6,-12,-39,-16,-5,-5
68617632160,-3,4,8,7,12,-1,-5,-10
68617632160,9,0,-4,15,23,6,-1,9
68617647330,1,4,6,-11,-16,-6,0,1
68617647330,-1,-1,0,-27,-18,-1,-2,1
68617654777,-4,-2,5,-6,1,-13,-9,-8
68617654777,-15,-8,-14,-15,-44,-14,-3,-18
68617669639,3,1,-3,5,-7,6,-4,4
68617669639,0,-7,9,30,36,13,0,0
68617677114,-1,-4,-11,-41,-37,-12,-4,3
68617677114,-4,-1,5,8,1,-4,0,-6
68617686077,0,7,2,10,9,-6,2,-1
68617686077,1,2,7,-1,-2,4,1,3
68617692161,-4,-7,-17,-17,-11,-3,-1,0
68617692161,4,2,12,28,41,12,2,5
68617707285,-6,-7,2,6,9,-1,-3,-4
68617707285,1,5,-2,-7,-17,-10,-4,-3
68617714774,0,3,-1,4,10,3,1,1
68617714774,0,-2,1,2,-1,1,-1,0
68617729818,3,3,4,5,9,8,0,1
68617729818,-4,0,-5,-13,-8,-7,-4,-5
68617737302,2,-2,3,2,0,7,5,5
68617737302,-4,-10,-13,-29,-40,-9,-7,-3
68617746209,4,9,25,54,60,14,5,-1
68617746209,0,1,1,4,13,4,5,3
68617752153,-1,-1,-12,-13,-19,-3,-1,4
68617752153,4,3,0,6,45,15,2,5
68617767412,-6,-3,2,-15,-15,-10,-7,-8
68617767412,0,-1,-6,7,16,2,-3,0
68617774890,1,3,7,3,1,2,2,0
68617774890,0,0,-6,5,-5,0,4,3
68617789849,-4,-7,-12,-41,-29,-10,-6,-3
68617789849,-1,-2,0,9,-3,-4,2,-2
68617797271,0,-2,6,10,27,7,-1,-1
68617797271,-2,-3,6,32,-6,1,-1,-2
68617806119,0,-2,-10,-19,-11,-5,-3,-1
68617806119,-1,-2,2,-32,-39,-9,-3,0
68617812348,0,-1,-5,20,31,7,5,0
68617812348,-1,1,4,2,11,2,-1,0
68617827418,-3,-3,-6,-15,-26,-8,-3,-1
68617827418,0,-1,-2,-8,-7,-3,-3,-1
68617834797,-2,-1,-5,-9,-10,-7,-5,-2
68617834797,1,2,4,7,3,4,1,0
68617849870,-3,-5,-6,-1,-12,-10,-2,-3
68617849870,2,3,6,12,42,15,4,2
68617857375,-1,-2,-7,3,-20,-7,-3,2
68617857375,1,1,4,-6,-10,-4,0,1
68617866217,-2,1,4,-4,-10,-5,-5,-5
68617866217,-1,1,0,6,9,2,1,0
68617880473,0,-1,-6,-17,-7,0,1,-2
68617880473,-3,-2,-3,-11,-10,-1,-1,-2
68617887147,1,0,-2,16,22,2,0,2
68617887147,-2,-2,4,-8,-23,-8,-4,-5
68617894676,-1,-1,-1,6,18,9,3,0
68617894676,-1,0,1,-8,-3,-6,-4,-3
68617909899,-1,-3,-6,2,6,1,0,-3
68617909899,-2,-1,4,6,-1,-3,-5,-3
68617917414,-1,1,-1,-6,-6,-7,-4,-3
68617917414,-2,-2,0,4,-11,0,1,1
68617926173,0,2,-2,0,15,6,1,-1
68617926173,-3,-2,-7,8,1,2,4,2
68617940547,0,-2,-2,-2,-8,-5,-8,-5
68617940547,-1,2,4,2,4,-2,-1,0
68617947399,-2,-2,-2,-9,-4,0,2,1
68617947399,-2,-3,-3,-3,-10,-6,-3,-1
68617954836,0,2,2,13,15,5,3,-1
68617954836,-1,-1,-3,-11,-7,-6,-3,-4
68617969899,-1,0,-4,-7,-5,2,-1,-1
68617969899,-1,-2,1,6,13,-2,-3,-3
68617977325,-3,-3,-4,-8,-11,0,1,1
68617977325,-1,-1,-1,0,-16,-5,-3,-3
68617986226,-1,0,3,4,16,9,2,3
68617986226,-1,0,-2,-1,-6,-5,-3,-4
68618000571,0,0,-3,-3,-7,-3,-2,-1
68618000571,-1,-2,-3,-9,-6,-2,-1,-1
68618007095,-1,-2,-4,-13,-7,0,0,-2
68618007095,-2,0,-6,-23,-27,-10,-5,-1
68618014618,-2,0,6,35,30,7,-1,-3
68618014618,1,-1,-6,-17,-7,-1,0,1
68618029743,0,2,1,10,10,0,-2,-3
68618029743,1,-3,-2,-1,-10,0,0,2
68618037330,1,0,-7,-14,-10,-8,-5,-3
68618037330,-3,-2,4,9,-1,-3,0,-2
68618046127,-3,-4,-5,-9,-11,-1,-3,0
68618046127,-2,-1,-1,-4,11,4,3,0
68618060317,-1,-2,1,3,6,2,-2,-2
68618060317,-1,2,3,7,15,1,0,0
68618067308,0,-1,-2,-5,-15,-3,-1,-1
68618067308,1,0,0,5,4,0,0,-2
68618074597,0,-1,-2,-3,1,-3,-1,3
68618074597,2,2,4,1,1,2,-1,0
68618089741,0,-1,1,1,3,4,3,0
68618089741,-1,-1,0,6,-6,-4,-2,-1
68618097230,-1,1,0,-19,-3,0,0,-2
68618097230,-1,-2,-7,16,22,4,0,4
68618106100,-1,2,5,4,-21,-8,-1,0
68618106100,0,-1,0,3,6,3,-1,-2
68618120571,0,0,-1,-11,-6,-3,-1,-3
68618120571,-1,1,2,-10,-8,1,-2,-4
68618127255,0,-1,-2,14,25,1,1,1
68618127255,-1,-1,-1,-1,-4,-3,-3,-2
68618134810,-2,-2,-6,2,-10,-3,1,1
68618134810,0,-1,-1,-2,4,4,2,-1
68618149903,-2,-2,2,1,5,0,0,-2
68618149903,-2,-1,-4,-7,-6,-4,-3,-2
68618157204,-2,0,3,6,6,1,0,0
68618157204,0,-3,0,-8,-8,-6,-4,-1
68618166158,-1,-1,-2,-8,-13,0,1,1
68618166158,-1,-3,-3,1,17,5,1,2
68618180392,-1,0,3,3,2,0,0,1
68618180392,-2,0,-1,-1,-1,-4,-4,-1
68618187118,-1,-2,-5,-5,-10,-7,-6,-5
68618187118,0,0,-4,-11,-10,2,1,1
68618194835,0,1,10,6,-1,0,0,-2
68618194835,-1,-1,-7,1,3,5,3,-1
68618209700,0,2,2,7,10,0,-1,-2
68618209700,-1,-1,1,-7,-17,-5,-1,-2
68618217266,0,-3,-3,1,5,2,-1,-2
68618217266,-1,-2,-3,-6,-17,-7,-3,-2
68618226089,-1,-1,1,-12,-12,-5,-2,-2
68618226089,0,-1,2,10,9,2,2,-1
68618240488,0,0,1,3,-8,-1,-4,-1
68618240488,-1,-3,-4,2,9,-1,-2,-1
68618247248,1,1,0,-2,-6,5,0,0
68618247248,-1,-1,-2,0,1,-5,-4,0
68618254785,-1,-1,-4,2,3,-4,-1,-1
68618254785,-2,-3,-2,-10,-13,-8,-5,-4
68618269591,1,0,6,13,18,2,-1,0
68618269591,-3,-1,1,-1,-8,-2,-2,-1
68618277407,-2,-3,-4,-4,-3,-4,-2,-1
68618277407,0,0,0,0,1,0,-2,0
68618286102,0,-1,-3,-7,-9,-3,-1,-1
68618286102,0,-1,-3,0,0,0,-1,-3
68618300332,-1,0,1,-4,-4,-1,-1,-2
68618300332,-1,1,1,3,4,0,-1,-1
68618307323,-2,-1,-1,-2,-9,-3,0,1
68618307323,1,-1,-3,-4,0,1,1,1
68618314828,0,1,6,3,15,4,0,-2
68618314828,0,-2,-3,7,6,4,8,0
68618329752,-1,-2,2,8,5,-1,-3,-2
68618329752,-2,0,-1,-7,-8,-4,-3,-3
68618337334,-1,-1,-5,-5,-4,-2,1,1
68618337334,-2,-4,-2,-18,-14,-7,-3,-3
68618352219,-2,-1,-3,11,6,3,4,-1
68618352219,0,0,4,6,9,0,-2,0
68618360471,-1,-2,-4,-4,0,-6,-1,-2
68618360471,2,0,1,17,16,9,2,6
68618375507,-1,-1,-5,-13,-18,-7,-3,-1
68618375507,-1,-1,4,9,6,1,-1,-2
68618376144,-2,-1,-2,2,-2,0,-1,0
68618376144,-3,1,-4,-8,-7,-5,-3,-2
68618389665,0,-1,-3,-7,1,-2,-4,1
68618389665,-1,0,-1,3,-1,2,-1,3
68618397103,-2,-2,-7,-12,-9,-5,-2,-2
68618397103,1,1,3,7,11,1,-1,-1
68618412306,-1,-3,-10,-17,-12,-1,0,-1
68618412306,-2,-1,1,-2,0,1,-2,-4
68618420498,3,-1,0,5,5,1,-3,1
68618420498,-2,0,-1,-3,-2,-1,-1,-1
68618435290,-1,-2,1,-1,-9,-5,0,0
68618435290,0,-3,-6,-9,-14,-4,-3,-2
68618436194,0,0,-1,-3,-4,-1,-3,-1
68618436194,0,-1,0,3,-1,0,1,-1
68618449639,-1,0,4,-2,2,-1,-2,-1
68618449639,0,2,0,14,10,-2,0,-1
68618457112,-2,0,-1,-5,-11,-2,-1,0
68618457112,0,-2,1,5,7,-1,-2,-2
68618472297,-1,1,1,5,-2,-1,0,0
68618472297,-1,-2,-1,-13,-15,-4,-1,0
68618480465,0,-1,2,9,10,5,3,-1
68618480465,-3,-1,-6,-1,1,-1,-3,-2
68618495508,-2,-4,2,-3,1,0,-1,-3
68618495508,0,0,-3,-1,-7,-3,-2,0
68618496245,-1,-1,-1,-11,-13,-6,-1,-2
68618496245,-3,-4,-4,-7,-9,1,0,-2
68618509623,1,0,2,11,22,9,3,1
68618509623,0,-1,-1,-4,-2,-5,-4,0
68618517088,-2,0,-3,0,-3,-2,-1,0
68618517088,0,-1,1,-9,-11,-2,-1,0
68618532099,0,0,-3,3,2,-5,-4,-2
68618532099,-1,-3,-2,-2,0,1,1,-1
68618540475,2,-2,-2,-2,4,4,3,1
68618540475,0,-2,0,0,4,-2,-2,-2
68618555547,-1,-2,0,-1,-14,0,0,2
68618555547,-1,-1,1,8,27,3,1,0
68618556172,-1,-2,1,4,9,4,-1,-2
68618556172,1,1,-6,0,-1,-2,-2,-1
68618569756,-1,-1,6,2,-17,-9,-4,-1
68618569756,-2,-2,0,3,8,5,5,0
68618577194,-1,-1,-1,0,-2,-1,-3,-2
68618577194,-1,1,-2,-1,2,0,0,-1
68618592316,-1,0,-6,-11,-11,-8,-4,-1
68618592316,-2,-2,-5,-9,-9,-3,-2,-1
68618600633,0,-2,-1,-1,-1,-1,0,1
68618600633,0,-3,5,-1,0,-2,0,-2
68618615302,0,-2,-4,-3,0,-2,0,-1
68618615302,0,0,-1,0,3,-1,-1,-1
68618616111,0,0,-1,-1,0,-2,0,-1
68618616111,-1,0,-1,-1,-7,-4,-4,0
68618629751,-1,-1,-2,3,5,3,1,0
68618629751,-1,-1,0,0,-2,-2,-3,-1
68618637286,-2,0,0,-6,-4,-2,-2,-2
68618637286,-1,-2,-2,0,-3,-1,-1,-1
68618652285,-2,-2,-4,-13,3,-1,-2,-3
68618652285,0,0,3,7,16,7,2,2
68618660486,-2,0,-2,-5,-13,-5,-2,-1
68618660486,0,-1,0,5,3,1,-1,3
68618675514,-2,-1,-4,-3,-10,-2,-2,-4
68618675514,0,-1,-3,-12,-11,-1,-1,-1
68618676147,-3,-2,-1,2,2,-2,-1,-1
68618676147,0,-1,1,-4,-5,-2,0,0
68618689665,-1,-1,-1,5,11,2,0,0
68618689665,-1,-1,0,-4,-13,-5,-4,-2
68618698062,0,0,-1,8,0,2,3,0
68618698062,-1,-3,1,4,-6,2,-2,-1
68618712158,1,1,0,3,13,1,-2,-1
68618712158,-2,-3,-4,-12,-18,-3,-1,-2
68618720531,-2,-2,-3,3,7,2,1,0
68618720531,-2,-1,-2,-7,-3,-4,-3,-3
68618735523,-1,-2,-3,10,3,-2,-1,-2
68618735523,-1,-2,-1,-6,-4,-1,-1,0
68618736149,-1,-2,1,-4,-6,-1,0,0
68618736149,-1,-2,-1,-2,2,2,1,0
68618749864,0,-1,-4,-5,-6,0,2,1
68618749864,-2,-1,-1,4,4,-3,-2,0
68618757906,-2,-1,2,0,-4,-3,-3,-2
68618757906,-2,1,-3,-6,2,-3,-1,-1
68618772314,-1,-2,1,-2,-6,-3,-1,-1
68618772314,-1,0,-1,3,1,1,1,-2
68618780536,-2,-1,-1,0,0,-4,-3,-3
68618780536,0,1,-2,0,-7,0,1,0
68618795454,0,-1,1,-1,2,2,-1,-1
68618795454,1,0,-2,-8,-1,0,1,1
68618796118,-1,-2,0,5,5,3,-1,-1
68618796118,0,-3,0,7,4,-1,-1,-1
68618809621,-1,-2,-3,-5,-7,-1,-1,0
68618809621,0,-2,-3,-10,-5,-5,-2,0
68618817988,-1,-2,0,-5,-16,-1,0,-1
68618817988,1,-1,-1,-2,3,-1,-2,-2
68618832268,0,-1,0,1,5,4,5,4
68618832268,-1,-1,-4,-1,4,-1,-3,-1
68618840469,-3,0,-4,-15,-14,-7,-4,-2
68618840469,0,2,4,11,16,4,2,1
68618854782,-2,-1,2,-6,-10,-2,-1,-2
68618854782,0,-1,-3,-9,-9,-1,-2,-2
