timestamp,emg1,emg2,emg3,emg4,emg5,emg6,emg7,emg8
6155841641,4,-74,23,10,0,1,0,0
6155841641,5,-70,-3,12,-1,-4,-3,-1
6155842539,-5,92,11,0,-1,-1,-2,-4
6155842539,-1,-46,-43,-5,1,4,1,0
6155843412,-4,-64,27,0,1,0,0,0
6155843412,2,78,-12,-2,-1,-1,0,-1
6155846042,4,9,36,-9,-5,-4,-4,3
6155846042,1,-52,3,3,2,-1,2,-1
6155854652,0,50,-10,-3,-4,-3,-3,-3
6155854652,-12,22,-20,-15,-6,-5,-5,-4
6155861788,-2,-69,-3,5,4,4,3,1
6155861788,0,-17,11,-5,-5,-1,-3,-2
6155869612,1,58,-22,-2,-4,-8,-4,-1
6155869612,3,-36,29,7,6,4,2,1
6155883178,-2,-56,-23,-3,0,0,-1,2
6155883178,4,50,1,3,4,1,2,-1
6155894625,-11,1,6,-4,-6,-2,-3,-5
6155894625,2,-32,-14,-6,-6,-5,-4,-2
6155898284,5,3,-6,1,5,2,2,0
6155898284,-3,29,-12,0,-3,-4,-3,-1
6155914697,7,-17,-4,0,6,3,1,1
6155914697,-10,-5,14,-2,-1,2,0,-1
6155921891,-2,16,37,4,-3,-3,-3,-3
6155921891,1,-30,-1,0,1,0,-2,-2
6155961421,-1,-90,-1,-2,-3,-3,-4,-1
6155961421,-5,85,-6,-5,-4,0,0,-1
6155962337,4,-1,3,-1,-4,-2,0,3
6155962337,-6,-72,-11,0,5,4,2,-1
6155963068,-2,70,-30,-4,-2,-2,-2,0
6155963068,3,38,47,-2,-3,-3,-4,-3
6155965554,-6,-37,1,-6,-3,-3,-2,-1
6155965554,-3,-4,-3,-2,-4,-4,-2,-1
6155974465,-5,63,7,6,4,2,2,-1
6155974465,-5,-85,-14,-2,2,3,3,-1
6155980637,1,-33,-1,0,-1,1,-2,-1
6155980637,0,66,-1,-7,-5,-5,-4,-1
6155989406,-2,-26,-7,3,5,1,1,0
6155989406,6,-56,20,13,0,1,-1,0
6156003013,3,35,-8,-19,-3,-2,-2,0
6156003013,-3,6,-9,0,2,1,3,1
6156011971,-1,-38,13,-8,-7,-4,-4,-2
6156011971,-5,-14,1,1,2,3,1,-1
6156025462,-4,32,-8,8,1,-3,-3,-2
6156025462,9,-15,3,0,-5,-5,-4,3
6156034455,-2,-24,-5,-4,1,0,2,-2
6156034455,2,21,22,10,6,2,0,3
6156040589,12,-17,-71,-6,-1,0,-1,-1
6156040589,-15,-24,-6,-2,-1,-1,-1,-5
6156049601,-1,1,-8,3,-2,-1,-1,-3
6156049601,0,0,-19,-10,-8,-6,-2,2
6156062956,-4,-32,39,5,6,7,2,-2
6156062956,-3,-10,4,-4,-2,-1,-1,-1
6156071971,1,9,1,-6,-1,-1,-1,-3
6156071971,-3,-3,-9,-1,1,-2,-5,-2
6156085530,2,-8,5,9,-4,-2,-2,-1
6156085530,5,12,-4,0,-2,2,0,2
6156094486,1,-11,27,8,-1,0,-1,0
6156094486,-9,-8,-75,-18,-3,-4,-1,-3
6156100505,-5,12,-1,-3,-3,-4,-2,-5
6156100505,-7,-28,3,1,1,1,-3,-2
6156109469,9,-9,-3,-1,-1,-1,-1,0
6156109469,-3,17,10,-2,-6,-4,-3,1
6156123063,-6,-7,-8,6,3,2,-3,-3
6156123063,2,6,5,1,1,2,10,2
6156131967,-1,3,-19,0,1,-1,-2,-2
6156131967,4,-10,10,-4,3,6,3,1
6156154405,-6,7,7,1,2,2,3,0
6156154405,4,-5,20,-1,-2,-4,-7,-4
6156155924,-2,-19,-1,-1,-4,-6,-2,2
6156155924,5,-38,17,3,-5,-5,-1,0
6156160592,1,118,8,-14,-3,0,0,-1
6156160592,-2,11,18,34,14,2,-1,2
6156169418,-16,-24,-9,-10,-4,0,0,-2
6156169418,0,64,4,5,-1,-5,-1,-9
6156183108,4,105,4,-4,-7,-5,-31,4
6156183108,4,-52,4,-11,-4,1,23,0
6156191897,-11,-56,-7,11,6,7,6,0
6156191897,9,-53,3,5,-5,3,-6,-2
6156205564,-8,-128,15,-16,-1,-1,4,-2
6156205564,-6,-41,-66,-12,-6,-11,-9,-6
6156214474,1,59,17,9,4,0,-6,0
6156214474,-4,27,-21,-8,-2,-14,8,0
6156220568,9,4,32,10,0,14,0,-1
6156220568,-12,47,11,-9,-7,0,-15,-2
6156229417,9,49,-14,-5,2,7,18,3
6156229417,-2,-37,-17,5,1,-7,-6,0
6156243061,0,4,-5,-4,-7,-7,4,2
6156243061,-1,53,0,-1,0,-2,1,-7
6156251914,3,-13,19,-3,-2,-2,-24,2
6156251914,2,1,9,-3,-2,4,1,0
6156265555,-12,6,29,4,1,-11,2,-5
6156265555,5,2,-23,-4,-2,3,0,0
6156274451,16,-5,10,0,-4,-7,-7,3
6156274451,-6,-1,-24,-3,0,8,20,1
6156280478,-15,-4,12,5,4,3,-3,-2
6156280478,-2,-15,12,-2,-1,-5,-8,-3
6156289431,7,-2,-9,-6,-3,-5,0,-4
6156289431,3,34,1,-7,-3,0,-2,0
6156303063,7,-17,-27,4,-1,-3,-5,5
6156303063,-5,-9,17,3,-5,4,-3,1
6156312048,-13,-4,-20,-18,-2,-3,1,-6
6156312048,3,-21,12,9,8,3,-2,0
6156325577,-2,-37,-50,6,-2,-3,2,-5
6156325577,1,0,14,-3,-2,-1,-3,-1
6156341207,0,-8,-8,-8,-5,1,1,0
6156341207,-11,-16,24,7,-2,-5,-6,-1
6156341941,7,-15,-18,2,7,7,6,0
6156341941,-1,11,9,6,-1,-2,-2,-2
6156355582,-8,-12,-8,2,-4,-3,7,-3
6156355582,11,-4,19,-3,1,2,-5,1
6156363028,-6,9,1,-2,-3,-5,1,0
6156363028,6,-2,-9,-3,-2,0,2,3
6156371938,0,-20,-6,-5,-8,-4,-19,-5
6156371938,-13,0,5,1,4,3,34,1
6156385544,-2,8,39,5,-2,-2,3,1
6156385544,-4,-31,-50,-4,0,-2,-4,-1
6156394463,-3,13,-21,-10,-5,-3,-8,-3
6156394463,2,8,-18,3,7,1,-9,-1
6156408749,-1,2,20,0,0,1,1,-5
6156408749,-4,-21,-18,4,3,1,19,3
6156415584,-8,2,17,1,-6,-4,-1,0
6156415584,5,2,19,-3,-8,-1,-15,-3
6156423075,3,-12,-20,-7,-1,-3,1,1
6156423075,0,5,23,7,8,2,-6,-3
6156431987,0,-1,4,13,6,6,6,3
6156431987,-1,-7,-5,-8,-3,-5,-8,-6
6156445556,-9,-36,-24,-5,-1,-1,-6,1
6156445556,5,-2,-3,-6,-5,-5,-6,-1
6156454443,3,11,55,7,-6,-7,-2,-4
6156454443,-21,-12,-36,-13,-3,-1,2,0
6156460569,10,19,-6,-15,-4,-1,-3,2
6156460569,9,-9,-14,-4,1,2,-1,2
6156475609,-9,10,17,-3,-1,0,5,1
6156475609,5,-2,8,10,-1,1,-8,-1
6156483052,6,36,7,-2,-16,-5,0,-6
6156483052,-12,-52,-8,17,19,-2,-34,-3
6156491893,-2,19,7,-15,5,8,23,4
6156491893,2,-6,0,11,7,0,4,-1
6156505584,14,-17,-10,-5,-2,2,9,10
6156505584,-22,11,28,1,-12,-5,-26,-13
6156514495,-5,6,-33,2,-1,-4,-10,-10
6156514495,-19,-9,24,0,-2,-3,-13,2
6156520588,5,-20,-11,-9,-2,-4,4,0
6156520588,25,-3,-5,-11,-10,-2,25,7
6156535601,-5,48,12,-2,5,-3,-6,-5
6156535601,0,32,5,4,2,2,-36,-5
6156543083,0,-22,-64,-2,0,-3,2,-1
6156543083,10,87,17,-9,-7,-5,-15,8
6156551900,-7,-69,-14,-2,-9,-2,18,3
6156551900,-1,10,-1,-2,7,6,-13,-12
6156565599,-4,33,16,11,10,4,-5,0
6156565599,15,-2,-32,-1,3,1,9,4
6156574421,-7,-41,-19,0,0,-2,-1,-1
6156574421,13,23,-3,5,-8,-5,7,7
6156580555,-8,0,1,-9,3,-7,-8,-7
6156580555,-10,-30,4,-13,-9,2,16,-4
6156595454,8,25,39,10,2,0,21,4
6156595454,-4,-34,-23,-3,-8,-2,10,-4
6156603052,9,31,35,-5,-2,3,-2,7
6156603052,-1,22,37,12,-2,-4,2,-3
6156611963,11,-21,-2,10,1,-1,-13,-1
6156611963,-7,0,-27,-16,-1,-2,9,-1
6156625585,-9,-26,-6,17,-1,-2,5,-6
6156625585,-4,-12,3,-4,3,1,-3,-1
6156634408,-4,9,-14,0,1,0,-1,1
6156634408,0,22,43,6,-5,-1,-1,-1
6156640532,-3,-22,39,2,2,-3,-5,-4
6156640532,-6,-18,-55,-9,-6,2,2,3
6156655474,5,4,0,6,5,2,-5,3
6156655474,4,20,13,6,8,-1,9,3
6156663063,-1,-28,-13,-9,-7,-2,-8,-3
6156663063,-6,6,4,-7,0,7,15,-1
6156671923,8,-16,-18,8,-2,1,-2,2
6156671923,10,5,8,-19,-7,-1,-3,1
6156685450,-11,-9,-5,0,8,1,0,-3
6156685450,-15,25,11,3,-4,-7,-4,-4
6156694422,-1,3,-2,-21,-3,-3,-17,-6
6156694422,11,-26,-1,25,-7,-5,4,4
6156700534,-4,48,-2,-17,9,9,2,-1
6156700534,-6,23,15,3,1,-3,-2,-6
6156715458,-3,-13,0,0,-1,1,-3,-1
6156715458,-4,-11,-1,-10,-8,-4,-2,-1
6156723055,17,40,14,16,0,-3,-1,5
6156723055,0,3,38,-2,-4,-2,-6,-3
6156731941,-1,24,4,-15,-3,-2,8,2
6156731941,-5,-26,-23,6,7,1,-1,-3
6156745527,0,-14,5,16,-1,-1,2,-2
6156745527,5,-16,-10,-11,-2,-3,-2,2
6156754439,-5,10,7,0,-2,2,-6,-4
6156754439,-1,-9,-1,-7,0,-7,0,2
6156760559,-16,-26,-29,-3,-3,-2,5,-4
6156760559,-5,29,12,13,6,1,-1,-4
6156775555,3,-15,-21,-12,-5,1,10,3
6156775555,-12,1,3,-13,-15,-5,-4,-7
6156783087,-2,5,-1,-4,0,-2,-3,-1
6156783087,7,-35,-14,-4,2,0,5,3
6156791906,-4,6,34,18,5,-1,-6,-2
6156791906,3,-24,-22,-3,-2,2,-4,-4
6156806223,-14,-4,-22,-13,-7,-5,3,-4
6156806223,9,-12,11,5,-4,-1,-11,-4
6156813052,4,13,20,8,7,2,4,3
6156813052,5,-5,-48,-16,1,1,4,4
6156820449,-6,11,32,15,5,4,-3,-1
6156820449,1,-15,-4,4,0,2,0,-1
6156835635,2,6,-16,-11,-4,-7,-8,-3
6156835635,-3,14,50,14,-1,-3,2,0
6156842957,7,-16,-48,-17,0,1,-1,4
6156842957,-3,-19,6,-6,-1,0,1,-2
6156851953,-6,4,30,11,2,-3,-3,-2
6156851953,-7,-9,-45,-4,0,-1,-2,-5
6156866149,0,-23,12,1,-5,-6,-4,-3
6156866149,-2,5,-20,-2,2,1,-1,-4
6156873056,5,-56,-19,2,4,2,-1,0
6156873056,-12,51,-19,-3,-1,-3,-10,-2
6156880448,10,8,21,5,-2,1,0,1
6156880448,-6,0,-5,-6,-5,0,6,4
6156895495,-3,-23,1,-7,-12,-6,-4,-4
6156895495,1,3,2,-6,5,0,-3,-2
6156903006,2,-2,12,13,4,2,6,-1
6156903006,5,-5,40,1,0,-2,-1,4
6156911904,-9,35,54,6,0,2,0,-4
6156911904,7,-22,40,-2,4,1,4,3
6156926245,0,26,-26,-22,-12,-9,-4,-3
6156926245,-3,13,35,16,3,4,1,-3
6156933012,-8,-10,-42,7,8,1,-2,-2
6156933012,4,-12,7,13,-1,-2,0,0
6156948705,3,-3,22,7,-1,-1,2,5
6156948705,-12,10,-32,-23,-7,-3,-4,-3
6156955441,5,-9,-21,-17,-14,-7,-3,-2
6156955441,-3,-19,-44,-4,2,2,0,-5
6156971782,-3,23,26,8,-4,-6,-4,1
6156971782,5,-6,-11,4,-1,0,6,2
6156973362,-8,23,18,-8,8,0,-1,-1
6156973362,-11,0,-60,-5,0,2,-4,-1
6156986911,-1,-25,17,1,-5,-2,4,-1
6156986911,-7,-18,-17,-5,-3,1,-3,-4
6156994486,9,5,8,18,4,1,3,1
6156994486,7,5,-24,-17,-2,1,5,3
6157008670,-11,-40,6,2,-2,0,-5,0
6157008670,1,27,-22,-8,4,-2,-1,-2
6157015444,0,2,-18,-3,-9,-7,-2,-1
6157015444,-1,-4,17,4,10,4,-2,1
6157031938,-7,8,-32,-1,-1,-1,-4,-5
6157031938,0,0,-1,-3,2,6,4,2
6157033421,6,15,14,-1,1,-1,-5,-2
6157033421,-1,-12,17,-1,-11,-8,0,1
6157045487,-13,-67,6,-1,-5,0,-6,-3
6157045487,6,0,-3,8,16,2,0,4
6157054442,6,15,-37,-7,-9,-1,-5,-3
6157054442,-4,-34,7,0,0,-1,-5,1
6157068731,-3,-33,33,2,-2,-3,3,-2
6157068731,-20,0,-11,-10,-13,-8,-8,-9
6157075414,-9,-63,-24,-4,3,4,0,-2
6157075414,-6,7,46,3,-1,-3,-3,-6
6157091858,9,57,-31,-4,-6,-2,-4,0
6157091858,3,-8,-22,-14,-10,-13,-7,-5
6157093369,3,0,3,1,1,1,1,-1
6157093369,-11,-76,6,0,-2,1,-4,-3
6157105513,-9,-8,-4,-6,7,0,8,-3
6157105513,6,9,5,15,-1,0,-1,4
6157114392,-20,0,26,12,10,3,6,0
6157114392,10,18,11,2,-2,-4,-3,-2
6157128680,3,29,0,1,5,4,-1,4
6157128680,9,-27,3,-3,-2,-2,2,-1
6157135517,-10,-18,-31,-6,-3,-1,-6,-1
6157135517,11,47,14,1,2,2,6,1
6157151833,2,38,-4,-5,-2,-5,-11,-3
6157151833,3,-26,7,-6,-6,-5,9,3
6157153371,-2,35,-58,-10,-7,-3,-5,-3
6157153371,-4,51,13,-13,-9,-1,-1,-4
6157165522,8,-38,-26,4,1,-1,0,-1
6157165522,-11,18,35,12,-1,-4,-6,-3
6157174416,4,70,-35,-22,-3,0,-1,-2
6157174416,-2,-15,-30,-1,-3,-2,1,-3
6157188689,9,-30,12,-1,3,2,0,6
6157188689,-2,15,21,4,-3,-3,-2,-1
6157195410,-5,-69,12,-2,0,0,3,0
6157195410,-2,51,15,1,5,-1,-3,-2
6157211922,-10,-22,-42,10,6,4,2,-3
6157211922,6,2,-28,-1,7,0,-1,0
6157213408,8,-40,-5,6,-8,-4,-7,3
6157213408,-8,10,11,3,-8,-8,-4,-2
6157225547,7,45,40,-7,7,4,2,2
6157225547,2,15,-9,-9,0,3,-1,-2
6157234396,-9,-20,-29,0,-6,-5,-4,-4
6157234396,1,6,6,-1,0,-3,0,1
6157248707,6,33,-13,-6,-10,-6,2,4
6157248707,-8,-67,-30,9,0,7,-1,-2
6157271864,-9,-6,46,1,-1,-2,0,-1
6157271864,-2,-25,-12,-1,16,4,6,-3
6157272570,-10,-55,-18,-4,2,4,0,1
6157272570,3,13,-6,-10,-4,-7,-3,1
6157277978,-17,20,18,-4,-12,-7,-7,-8
6157277978,5,1,-24,0,-4,2,2,2
6157285513,-12,-17,-13,-13,-1,-4,-5,-6
6157285513,11,60,21,-2,-4,-3,-1,1
6157294418,22,45,58,4,2,-1,2,5
6157294418,-1,-3,-10,-1,-1,2,-1,0
6157308720,4,23,40,9,-1,0,2,-3
6157308720,-2,-37,15,1,3,2,1,-2
6157315439,10,29,0,1,2,-2,0,2
6157315439,8,-14,-6,0,1,3,0,7
