timestamp,emg1,emg2,emg3,emg4,emg5,emg6,emg7,emg8
6889319586,-2,11,8,4,-1,0,0,1
6889319586,-5,0,-7,-16,-4,-4,-2,-2
6889320314,-9,-18,-7,5,7,0,-5,-5
6889320314,-1,5,-8,-14,-10,-7,-4,1
6889321205,0,-1,0,2,2,3,1,-2
6889321205,0,-4,3,6,0,1,0,-2
6889321875,0,5,1,-5,-7,-6,-6,4
6889321875,3,6,5,5,3,4,4,-3
6889333294,6,-12,-7,-3,-3,-4,-6,-3
6889333294,-3,1,1,-2,0,2,1,3
6889341283,-8,11,-2,-3,-4,-3,-1,-6
6889341283,0,-9,-1,0,0,0,0,-2
6889347633,3,-5,-1,-4,-5,-13,-8,-4
6889347633,2,-1,-3,1,1,12,3,5
6889362629,3,-1,2,0,0,-6,8,1
6889362629,-1,-8,-4,-1,-3,1,-10,-3
6889371941,-20,-1,-2,-1,1,-11,-18,-2
6889371941,17,4,-3,-6,-5,3,9,2
6889377570,-16,-4,1,6,5,2,-1,-8
6889377570,-13,0,4,2,-4,-2,3,0
6889393394,18,-4,-6,-4,-3,-2,2,1
6889393394,-14,1,0,2,-2,-7,-5,0
6889401151,13,-24,-6,-6,-3,1,1,-8
6889401151,-2,30,8,7,11,6,1,7
6889440765,15,-19,1,-3,-6,-10,-5,5
6889440765,14,40,6,-3,-1,13,7,-8
6889441700,-34,3,-6,-1,0,1,2,-2
6889441700,-17,-15,-6,-3,0,-3,-3,-4
6889442434,6,-22,-6,1,1,-2,-3,-2
6889442434,10,29,28,8,2,-1,3,12
6889444959,2,20,-17,-11,-1,-1,-5,-7
6889444959,28,46,2,0,-1,0,0,1
6889453138,-30,-41,-6,8,1,3,1,-6
6889453138,-4,-25,-17,-18,-5,-7,14,-1
6889459808,11,34,8,1,-6,-1,-20,-1
6889459808,-6,10,4,-4,-4,-1,-5,-5
6889467453,11,-27,7,4,13,7,9,5
6889467453,-8,33,3,5,-7,-4,-12,-6
6889482392,-10,-59,-24,-35,-8,-9,3,-2
6889482392,6,31,-25,1,6,8,8,9
6889490632,11,59,10,-7,-11,-6,-4,1
6889490632,-30,-88,-4,1,5,6,-2,-7
6889497445,-7,43,18,3,-7,-6,-5,-10
6889497445,31,-22,11,6,-4,1,3,5
6889513127,-5,81,2,-26,-12,-8,0,-3
6889513127,-3,-48,-18,13,0,-8,-20,-2
6889519794,5,-27,-5,3,-2,2,7,8
6889519794,2,21,9,7,18,4,-6,0
6889527387,-17,-4,-7,-4,-3,5,7,0
6889527387,-13,37,7,-5,-17,-7,-2,-4
6889542482,16,1,13,12,5,6,6,2
6889542482,-20,-13,-25,-30,-14,-15,-7,-4
6889550598,4,-1,21,29,13,7,3,-1
6889550598,6,-2,-19,-18,12,6,-2,1
6889557356,21,-2,0,6,-3,-6,-1,2
6889557356,-18,-4,6,-4,-14,-11,-1,-4
6889573157,-3,-21,-10,-26,2,-10,-13,-10
6889573157,-13,-22,0,16,-11,16,0,-1
6889579959,7,-2,-12,0,19,-4,7,5
6889579959,-15,-52,8,29,18,-4,-4,-10
6889587356,1,-12,-10,-19,-33,-3,-2,2
6889587356,-2,-5,-17,-5,1,0,3,-1
6889602465,-1,-8,7,23,-8,-21,-7,-5
6889602465,-5,-27,8,-49,11,25,0,-7
6889610578,-8,-13,-26,-41,8,19,11,3
6889610578,13,9,-4,-26,-1,-18,-2,2
6889617387,-8,-15,7,25,19,12,7,0
6889617387,8,11,21,24,-37,-14,-5,1
6889633143,5,8,20,36,6,-1,-7,-2
6889633143,-10,3,-7,-12,4,-1,1,-7
6889639859,-1,0,0,-14,-10,-9,-13,-3
6889639859,0,9,3,-2,-1,0,15,7
6889647436,-4,-11,-2,-1,-9,1,-3,-4
6889647436,10,6,4,15,3,-14,-5,4
6889662347,-6,0,6,-2,-2,16,-1,-7
6889662347,-5,-3,-10,-1,1,1,0,-2
6889670546,16,22,7,17,6,6,4,11
6889670546,-6,-13,-11,0,-1,-15,4,-6
6889677428,0,0,0,2,4,11,-5,-1
6889677428,-4,-5,-3,-2,-3,-10,-1,-7
6889693797,-14,-15,-23,-4,-3,-14,-55,-7
6889693797,1,0,3,-3,-6,-8,32,-7
6889699904,-6,0,-11,-11,-5,0,-57,4
6889699904,-6,-2,-4,2,0,12,-22,-14
6889716296,-2,-18,0,9,5,-7,15,8
6889716296,1,4,3,2,0,6,-19,6
6889722369,6,-1,-8,-13,-10,-13,12,13
6889722369,1,-3,5,7,4,3,-3,-37
6889731261,4,-11,-2,1,3,1,-4,-10
6889731261,2,7,0,1,0,0,-3,6
6889744899,-6,-3,0,-3,1,12,13,1
6889744899,-12,-17,-5,1,-1,-16,-14,12
6889753770,5,8,2,2,-2,-3,17,3
6889753770,3,-1,4,6,3,7,-1,-4
6889759932,-3,-9,4,-2,-3,-3,4,-3
6889759932,3,-7,-12,2,2,-7,9,7
6889776317,-1,10,0,-5,-3,0,0,-5
6889776317,13,-1,10,5,-1,-2,-9,2
6889782373,-12,-3,-9,-18,-2,14,14,3
6889782373,26,42,34,31,1,1,3,7
6889791260,-37,-41,-58,-27,-4,-9,-2,-9
6889791260,5,13,25,-2,5,4,-1,-1
6889804912,4,7,-27,-18,-9,-5,8,-2
6889804912,-13,39,-17,-25,-9,-5,0,0
6889813803,-4,-40,22,40,8,5,-2,-2
6889813803,28,50,65,49,-19,-1,2,8
6889819932,-15,50,17,-31,14,-5,-2,-12
6889819932,-4,47,-69,-46,1,7,7,16
6889836321,-5,-72,-18,-15,-16,-5,-3,-13
6889836321,-10,5,-32,13,7,1,-5,-7
6889842392,31,85,45,25,-9,-4,5,5
6889842392,-45,-69,3,12,-7,0,0,-5
6889851313,24,100,12,-10,12,-2,1,3
6889851313,1,-62,-10,-2,-12,-2,23,9
6889864839,0,-24,-33,-10,-2,-5,-37,-17
6889864839,17,-64,15,1,-6,-3,4,9
6889873787,6,60,17,-9,-8,1,7,6
6889873787,1,-4,-18,23,24,7,-5,-6
6889879918,0,-97,-5,14,6,3,27,5
6889879918,-9,70,20,2,1,-2,-5,-1
6889896291,25,32,28,11,-8,1,-8,8
6889896291,-22,51,5,-25,-4,4,7,-9
6889902288,-13,-41,-55,-28,-1,-4,-14,-3
6889902288,24,44,29,23,9,9,5,9
6889911312,-31,-51,-4,19,9,5,0,-2
6889911312,-19,-51,-31,-35,2,-13,-5,-9
6889924908,10,38,37,49,22,21,3,1
6889924908,11,-18,3,-23,-10,-4,1,-1
6889933782,0,24,-4,-1,-26,-5,0,1
6889933782,-8,-54,-21,-6,28,-7,-9,-3
6889939840,-1,-51,21,-20,-35,-15,0,-6
6889939840,9,-20,0,38,22,16,13,6
6889956266,-11,-49,-3,-21,24,-1,1,-8
6889956266,3,6,0,-16,-17,7,-6,-1
6889962362,3,19,-4,11,-2,-23,-7,-2
6889962362,-8,-14,-2,6,-31,9,-1,-9
6889971292,-6,-15,-2,19,20,-8,3,-6
6889971292,-1,-9,11,-12,-15,1,-5,0
6889984883,-5,4,-24,19,15,-3,6,-3
6889984883,0,-27,3,-7,0,-8,-2,-2
6889993783,2,-4,-4,-8,-6,0,-6,-1
6889993783,2,25,8,-16,-33,-19,-12,-2
6889999913,-8,-1,5,0,13,9,4,-3
6889999913,-20,-20,-6,-22,0,4,-4,-8
6890016240,2,13,-3,1,-17,-4,-1,-6
6890016240,5,12,0,6,-2,-8,-5,5
6890022218,0,22,18,15,3,4,4,-3
6890022218,-1,5,-11,-11,-7,-19,2,-5
6890031261,-1,17,-6,6,8,3,1,-9
6890031261,7,-1,-22,-11,-13,-9,3,6
6890044794,-14,-12,-2,-4,7,15,-1,-3
6890044794,14,5,3,1,10,-1,-11,3
6890053742,0,-11,-6,-2,-4,-2,23,0
6890053742,-12,7,-4,-5,1,-9,-6,-7
6890059736,-3,-14,-9,-13,-16,-1,10,3
6890059736,-10,0,0,7,1,-10,4,-4
6890076271,6,-1,-1,2,2,7,-14,6
6890076271,5,7,4,3,5,6,-5,-2
6890082228,-5,-14,3,-1,-6,-1,18,1
6890082228,2,-12,-11,1,3,2,-13,-3
6890091272,-2,-11,2,-7,-1,-3,31,4
6890091272,1,-7,7,7,10,9,-14,-1
6890104770,7,6,-2,0,-5,-6,-5,6
6890104770,-4,-2,-2,-4,-2,-8,2,-4
6890113727,-3,-2,6,-2,-6,1,-5,-1
6890113727,-6,-4,6,5,5,2,5,2
6890119754,-7,2,-1,-3,-3,-11,-6,-5
6890119754,-1,-6,-4,-3,-3,11,-2,-5
6890136226,11,12,2,-1,2,4,-4,10
6890136226,3,-2,1,8,6,14,14,5
6890142264,16,-1,0,-5,-8,-23,-2,-5
6890142264,8,-3,-5,-1,1,12,2,7
6890151229,-20,5,4,3,-5,-6,-17,-7
6890151229,-3,4,-12,-22,-10,-1,-5,-3
6890164757,2,11,7,-2,3,6,7,2
6890164757,-21,37,20,32,3,-5,-9,-6
6890173735,12,-8,-17,-17,5,4,3,2
6890173735,4,13,-1,10,-4,-4,2,3
6890179797,20,72,6,-27,-8,2,-7,6
6890179797,-11,-29,-9,24,0,-7,-1,-5
6890196203,-3,-28,29,-23,-7,-3,-8,-6
6890196203,9,28,-49,-34,2,-3,0,2
6890202274,0,-42,11,12,2,9,0,1
6890202274,-19,54,3,3,10,-1,-4,-2
6890211230,16,-53,-2,2,-7,-4,0,2
6890211230,-28,17,0,22,-4,-5,-7,-6
6890224748,3,-32,-14,-18,-5,-1,-3,-6
6890224748,43,102,27,24,-2,-2,3,8
6890233703,-40,-51,-32,-48,-1,-3,10,-6
6890233703,23,36,19,6,1,3,-14,10
6890239760,-11,-51,-1,19,2,4,-6,1
6890239760,3,-9,36,-4,-3,-5,-1,-4
6890256265,8,96,-27,0,-8,-6,-8,0
6890256265,11,-30,30,2,11,14,19,4
6890262253,-16,-36,-36,-31,-28,-19,5,5
6890262253,-5,-31,-25,5,20,11,6,-9
6890271206,-45,10,9,10,4,3,-15,-8
6890271206,-5,-37,-5,-5,-1,4,-7,3
6890284843,9,62,14,31,-3,-2,4,-7
6890284843,14,-9,-11,-24,0,-4,-16,9
6890293748,14,-5,-8,-6,-7,-6,-2,-5
6890293748,-16,37,7,24,6,-1,1,-10
6890299783,-10,-14,-1,7,19,2,-9,-4
6890299783,-4,-37,-17,-7,-24,-14,-10,-8
6890316290,10,7,11,-9,7,3,12,7
6890316290,19,-11,2,-8,-17,6,-2,1
6890322380,-1,2,4,-1,7,-7,4,-1
6890322380,-9,-37,-15,18,28,-1,7,2
6890331392,6,-16,8,11,8,2,-7,-4
6890331392,-1,-19,12,31,-30,-19,3,-6
6890344875,-5,-5,-24,18,30,12,7,4
6890344875,-3,-9,7,-35,-31,-13,-13,-3
6890353797,13,6,-17,14,10,6,-6,-1
6890353797,1,-12,-29,-29,-15,-6,4,1
6890359903,-12,-6,12,7,0,6,-6,-8
6890359903,16,21,-11,8,-1,1,12,11
6890376300,-1,7,19,17,0,4,8,-1
6890376300,-2,-11,-13,-10,-1,2,-1,0
6890382388,-2,6,6,-49,-21,-12,-13,-5
6890382388,15,6,-31,-40,12,1,6,6
6890391323,-1,26,3,7,-18,-3,-3,2
6890391323,-13,-10,5,35,16,-2,5,-6
6890404848,-2,-8,-6,-29,-15,-1,-3,0
6890404848,-13,-7,7,6,4,-6,-8,-6
6890413789,7,16,-14,-16,-7,-2,-5,1
6890413789,-3,15,7,-9,-4,-9,-17,-12
6890427315,-7,-3,-1,25,17,17,25,8
6890427315,-5,-17,1,-2,-15,-5,-4,-4
6890436371,2,-6,2,4,0,-3,0,1
6890436371,0,-12,-18,-12,13,-1,25,1
6890451104,11,22,20,30,2,-11,6,5
6890451104,-19,-24,-10,-14,-1,22,-6,-6
6890452732,7,-2,7,0,-7,-9,-3,-4
6890452732,-20,-22,0,-11,4,11,-5,-2
6890464909,1,3,-9,-11,-4,-13,-14,-5
6890464909,9,-4,4,-1,-8,-5,2,13
6890473748,-6,-10,-3,8,4,9,-13,-1
6890473748,-7,-13,5,-6,4,4,1,-6
6890487407,4,-2,2,7,-9,-8,-25,-5
6890487407,-13,-12,1,-5,1,-1,6,2
6890496220,12,6,4,3,-4,-4,-2,-1
6890496220,1,5,-1,-5,4,-3,-3,4
6890511204,-45,-6,6,0,-5,7,7,-11
6890511204,25,2,-1,-3,-5,-20,1,1
6890512717,-12,-3,3,5,5,8,5,6
6890512717,9,10,2,-1,2,17,1,-1
6890524886,13,2,-1,4,-3,-13,-3,6
6890524886,-2,2,-4,-15,-7,20,3,-2
6890533757,-2,12,14,33,10,-4,8,0
6890533757,-2,-9,-6,-9,-1,-6,-7,-3
6890547279,-37,-4,1,16,3,3,-2,-7
6890547279,9,16,-13,-16,-2,-1,1,-3
6890562382,9,-25,-5,-9,-1,-3,4,4
6890562382,17,1,9,-4,-11,-9,-8,2
6890571242,13,52,-5,1,3,3,3,3
6890571242,-20,-22,14,26,14,7,11,-1
6890572748,6,52,13,8,3,4,-4,2
6890572748,-16,47,-3,10,1,-6,-4,-5
6890584758,24,44,-20,-23,-13,-6,-5,0
6890584758,-6,16,13,3,-5,-3,-6,-2
6890593774,-11,-58,-4,-11,-7,-5,-4,-5
6890593774,-4,0,3,10,5,0,11,6
6890607343,14,-27,5,4,-1,5,-10,-6
6890607343,11,23,5,16,-2,-2,2,-2
6890616263,-12,-36,-24,-13,13,2,1,0
6890616263,-5,-39,10,-8,-7,-1,0,1
6890631233,14,60,8,6,4,9,7,4
6890631233,28,0,-20,-32,-10,-6,14,7
6890632723,-36,-23,-4,6,-6,-7,-26,-18
6890632723,43,25,17,-11,9,8,8,11
6890653753,-24,49,5,-10,2,5,2,0
6890653753,-6,-40,-1,11,-5,-7,-4,-4
6890655271,26,16,14,3,-12,-11,6,10
6890655271,-31,-12,-8,-8,-5,-7,-21,-12
6890668076,12,-19,4,-5,-6,0,-6,-5
6890668076,5,22,-7,-6,11,2,1,5
6890674879,-13,24,0,-5,1,6,24,1
6890674879,8,18,9,26,-3,-9,-27,3
6890691168,-10,-25,-12,-15,2,-8,-5,-13
6890691168,-10,-5,-3,-13,-17,-2,-9,-4
6890692767,9,16,3,25,20,13,8,1
6890692767,-5,-11,-3,-6,14,-6,16,9
6890704890,-4,-44,3,0,-20,3,-5,-6
6890704890,-7,-14,1,26,1,-7,-8,-7
6890713742,2,8,8,3,-4,-3,-4,-1
6890713742,-9,-17,-37,-17,-5,2,5,-5
6890728062,6,-30,13,22,4,-23,-11,6
6890728062,-13,-13,-8,-31,18,16,3,-6
6890734858,17,-1,-7,13,6,1,1,0
6890734858,-16,-12,-10,-15,2,11,3,0
6890751200,7,-15,-8,-24,-33,-5,1,2
6890751200,5,15,-1,44,-11,-13,-4,0
6890752697,13,2,-7,-17,-2,-3,-12,-4
6890752697,7,10,10,13,-8,1,3,-6
6890764875,-23,-19,-2,16,16,4,2,0
6890764875,13,-4,-23,-49,-11,-12,-3,3
6890773758,-34,-29,-8,-9,-15,-7,-16,-11
6890773758,2,-5,8,10,9,3,9,-2
6890787356,8,1,-8,-9,-11,1,5,1
6890787356,-11,5,13,-21,-5,0,-13,-4
6890796250,4,9,-4,-4,10,0,8,-3
6890796250,-7,-1,7,0,-10,-7,-2,-3
6890811732,0,-9,10,16,13,-5,3,3
6890811732,-8,-2,-5,-10,0,12,-15,-4
6890813249,-2,10,11,-11,-18,0,2,2
6890813249,-5,-9,4,14,8,3,4,-5
6890832827,13,17,3,3,1,-15,3,3
6890832827,-12,0,0,6,-3,7,-41,-5
6890841223,-5,15,9,-2,-5,-6,6,0
6890841223,8,2,-4,-5,0,2,5,0
6890847963,8,1,-6,-13,1,7,5,2
6890847963,-13,-18,-2,12,4,-9,6,-6
6890854874,0,3,-1,0,4,-2,-14,0
6890854874,6,8,-5,-13,-10,-7,-7,-1
6890871200,-9,-18,-5,0,-2,-14,-10,-7
6890871200,10,2,17,16,8,17,45,6
6890872741,-3,-13,-13,-8,-2,12,-2,1
6890872741,12,-5,-5,0,1,-9,1,2
6890884885,-19,-11,2,-5,2,4,-1,-3
6890884885,-11,-8,4,6,-3,-6,-3,-1
6890893701,1,-23,-21,-21,1,-8,2,-1
6890893701,-12,-6,-5,3,-3,0,-6,-8
6890908100,9,-2,-8,-5,-3,5,1,2
6890908100,-1,7,5,0,0,-2,8,0
6890914926,17,19,11,13,5,2,3,4
6890914926,-3,-10,-11,-8,-3,-6,-8,-1
6890931156,1,-1,-3,-3,-1,15,1,0
6890931156,1,-16,-8,-5,-5,-15,-7,-2
6890932721,-10,0,-2,11,-2,-5,-3,-2
6890932721,-4,6,3,-2,3,-2,-22,1
6890944847,11,-18,8,3,0,0,9,4
6890944847,-14,14,-16,-6,-2,2,-10,-11
6890953746,-4,22,-4,-5,-6,-4,-2,5
6890953746,2,-5,1,-1,-3,4,3,-3
6890968085,-5,7,12,14,12,3,-6,-4
6890968085,-3,56,-3,-10,4,0,9,5
6890974853,5,-98,3,3,0,1,9,1
6890974853,-28,0,-13,10,-7,-11,-7,-11
6890990586,8,84,12,-7,-13,-1,1,5
6890990586,-19,-44,-11,3,6,1,5,-8
6890997336,13,31,-15,-11,2,0,6,3
6890997336,44,55,45,23,10,13,9,12
6891004720,-58,-76,-6,13,-6,-3,-3,-12
6891004720,10,-17,-56,-46,3,-3,-7,-4
6891013731,-27,-39,-18,-5,-9,-7,-6,-2
6891013731,-13,-52,-26,-18,-4,-2,-3,-2
6891027303,-2,-2,7,11,3,2,-2,-3
6891027303,32,12,14,4,-2,2,5,8
6891036236,-12,45,19,10,-6,-7,-8,-5
6891036236,3,-21,-20,-22,-3,-5,9,-3
6891050529,-10,-64,-15,0,9,10,-10,-5
6891050529,-18,12,19,20,4,-2,-2,-1
6891057278,19,32,3,0,-3,-1,1,3
6891057278,-22,-3,1,4,-10,-6,-11,-3
6891064911,14,26,6,-7,1,6,10,-1
6891064911,23,-2,-12,-12,1,-5,1,6
6891073722,14,24,17,14,-4,2,-1,-3
6891073722,-7,37,-3,-11,5,-2,6,8
6891088056,10,0,-4,19,17,-2,-3,7
6891088056,-18,27,8,-2,-2,4,-7,-11
6891094744,-9,-27,-4,-13,2,-8,9,-5
6891094744,20,-12,6,10,1,10,-2,-1
6891110547,-3,2,-15,-52,-25,-3,1,1
6891110547,-16,-29,14,21,14,-2,7,0
6891117324,2,-3,11,-3,-17,-9,-16,2
6891117324,-11,-21,-4,-10,-2,-5,0,-6
6891124883,20,12,2,9,15,6,3,0
6891124883,6,-15,17,25,-9,6,2,0
6891133721,4,-12,-18,-24,21,-7,-7,-5
6891133721,-13,-9,6,4,-14,3,4,-6
6891148002,26,16,7,11,-36,-8,-4,4
6891148002,-16,-15,-2,-7,40,9,3,1
6891154923,-3,-9,-2,0,-20,-22,-2,-4
6891154923,11,26,7,20,12,16,-2,-2
6891170543,9,30,-29,-36,-2,-17,-3,-3
6891170543,1,2,0,11,-16,-9,0,2
6891177409,-11,-6,8,-21,-20,17,5,-4
6891177409,8,16,-8,7,35,-1,2,4
6891193723,1,-7,1,9,0,8,3,0
6891193723,-14,-1,21,7,-11,-12,-7,-5
6891195272,-4,-8,21,70,2,11,-2,-3
6891195272,9,10,-47,-54,-10,-7,1,1
6891207248,-14,-16,10,-8,2,3,-6,-3
6891207248,4,-10,-7,-7,5,-2,-4,0
6891216233,3,9,-9,-14,0,-2,0,2
6891216233,-11,-8,18,27,-10,-10,-4,-3
6891230587,-2,-6,-11,-11,2,-2,-13,-1
6891230587,9,-14,-6,-11,-13,7,6,-1
6891237336,3,16,-5,2,4,-13,12,2
6891237336,-2,-3,11,8,4,26,21,4
6891253698,-7,1,-7,-12,0,-5,-12,2
6891253698,11,0,4,8,-11,-1,19,0
6891255190,-7,-1,-9,-9,4,-4,-31,-12
6891255190,-7,-17,3,-14,-5,-34,-6,4
6891267366,4,-12,4,13,3,11,27,5
6891267366,3,-5,-4,-6,-8,4,19,-2
6891276186,2,-8,-6,-8,9,-28,-19,-3
6891276186,4,-7,3,-1,-2,30,-3,6
6891290439,1,0,2,9,5,8,9,15
6891290439,21,2,0,0,-5,-15,-21,-19
6891297386,-17,1,-6,-9,-2,4,14,-3
6891297386,-38,3,10,7,-7,-7,-6,-7
6891313728,4,-5,-5,1,1,-9,-7,-6
6891313728,10,1,-1,-6,-3,5,-2,5
6891315283,30,29,3,0,-2,6,-2,8
6891315283,-15,1,2,-1,-3,-5,-9,-10
6891327332,3,17,-1,-2,2,-3,-3,-2
6891327332,-25,-53,-10,1,2,-5,-2,2
6891336242,19,75,21,-6,-6,12,2,-1
6891336242,-9,-40,-21,15,8,-2,0,-4
6891350603,3,-27,8,0,-6,-7,1,0
6891350603,-35,-5,-10,-5,-3,1,-9,0
6891357328,12,45,1,-1,-1,5,2,2
6891357328,3,3,5,17,-13,-4,-3,0
6891373703,-23,-31,-7,-6,23,2,-2,-9
6891373703,31,63,10,7,-3,-1,-3,8
6891375191,-21,-43,-6,9,6,8,5,0
6891375191,8,27,-20,-45,-20,-13,-8,-5
6891387397,40,22,42,41,5,7,28,15
6891387397,-30,46,-10,-8,-2,-5,-26,-4
6891396208,11,-2,-21,-10,4,6,-13,0
6891396208,7,-5,38,56,-5,-4,27,-12
6891410539,-30,-49,-38,-43,3,-9,11,3
6891410539,-8,-12,23,48,-14,14,-11,14
6891417358,6,33,16,-43,5,0,4,-1
6891417358,-3,-23,-79,-50,11,-2,-24,-20
6891433692,2,49,-13,-50,-23,3,-27,16
6891433692,-3,19,29,20,-4,2,1,-1
6891435169,-33,-128,-56,-1,8,3,-13,-15
6891435169,16,16,41,10,-7,-7,16,19
6891447227,3,23,-18,-10,3,-6,-26,-17
6891447227,10,-30,-15,-24,-9,-12,-13,-4
6891456244,-10,32,30,30,-10,-6,11,-7
6891456244,12,40,5,-23,0,-15,-18,9
6891471884,-40,-22,-4,16,-26,-9,-12,-10
6891471884,-10,17,7,9,45,21,12,-4
6891477355,14,31,5,19,23,-1,-6,10
6891477355,-2,-5,-2,6,-1,2,-5,-8
6891493716,2,-2,9,4,1,-4,-5,-5
6891493716,13,-30,-16,-3,5,5,24,-1
6891495218,1,-25,-5,-53,-39,-6,-6,1
6891495218,-13,-33,-3,22,31,8,-10,0
6891507300,8,-9,23,49,16,0,11,0
6891507300,5,-4,-17,-46,-5,13,4,-2
6891516219,-2,-23,-12,0,-17,-31,6,2
6891516219,-15,-28,13,-23,-8,3,-3,-4
6891530547,3,8,-6,0,-10,-12,-3,-14
6891530547,12,-6,13,21,9,-6,35,11
6891537345,-8,4,3,-5,6,32,-2,-5
6891537345,7,27,15,14,-5,-2,12,9
6891553587,-2,7,1,6,7,-7,-11,-7
6891553587,3,-3,5,-27,-11,-5,-22,-1
6891555169,-4,0,-11,-4,-4,5,15,1
6891555169,10,32,23,31,2,0,-3,3
6891567365,1,7,-22,-43,-6,7,-2,-1
6891567365,-2,3,2,13,-8,-13,-1,2
6891576197,1,1,5,12,10,-1,-4,1
6891576197,0,-3,-10,0,-8,-9,-10,-2
6891590490,5,-8,1,-8,-6,11,8,-3
6891590490,-1,-5,0,-9,-6,-4,-3,-4
6891597370,4,2,-11,2,7,8,-1,0
6891597370,-15,-10,-5,-14,-14,-6,2,0
6891613639,3,-3,10,18,4,5,8,4
6891613639,2,3,-5,-10,1,-14,-32,-3
6891615227,-6,-14,-2,7,-2,11,0,1
6891615227,9,4,-7,-8,-5,7,-4,-2
6891635264,2,7,2,0,-2,-39,13,-12
6891635264,-1,-4,-18,-4,-1,43,-48,8
6891643728,13,0,6,5,-8,-31,18,5
6891643728,-18,-24,-9,-11,1,20,-26,1
6891650530,-19,-5,-4,3,2,-8,-16,-4
6891650530,-4,-7,-3,0,-6,-14,12,-12
6891657327,-3,-2,6,5,-3,1,-9,-4
6891657327,15,14,-1,-7,4,6,21,9
6891674161,18,5,0,4,-2,-4,-4,4
6891674161,2,-20,-5,-1,-2,6,7,-2
6891675644,-25,25,2,1,5,4,-1,-7
6891675644,14,-17,-9,-4,-2,-19,3,-2
6891688671,-38,-1,0,3,2,31,7,-5
6891688671,28,18,6,2,-3,-14,13,5
6891696308,7,0,-6,0,0,3,4,0
6891696308,-18,-9,-1,-1,-1,-4,-4,-4
6891710572,20,-8,-2,1,-5,-2,-4,-2
6891710572,-27,3,3,-8,-7,-15,3,0
6891717309,-1,-36,-11,-3,4,11,3,-1
6891717309,-5,59,2,6,11,7,0,-9
6891733614,0,8,5,26,5,5,-2,2
6891733614,15,37,-10,-22,-4,-4,6,1
6891735197,-2,-1,-7,-6,-14,-13,-3,-1
6891735197,-23,-81,-18,-22,-12,-6,-6,-6
6891747335,-9,53,16,9,0,1,-1,1
6891747335,3,-27,-23,-1,0,-6,-2,-9
6891756200,16,0,19,10,0,0,3,12
6891756200,12,15,24,39,-2,-3,-5,2
6891770458,45,-14,-14,-46,-2,3,-6,1
6891770458,-85,-5,-25,-11,-3,-6,-5,-15
6891777329,-1,-19,-8,-8,-1,-1,-10,-10
6891777329,23,55,4,3,-1,5,9,8
6891793709,-11,-22,12,22,-1,1,6,1
6891793709,25,7,11,9,10,2,9,5
6891795168,3,18,0,2,-1,-1,-16,-4
6891795168,-12,-47,-8,3,-1,-7,-5,4
6891807396,-21,18,4,0,-6,0,-4,-1
6891807396,34,-4,10,9,1,0,3,-1
6891816188,-29,18,-7,-7,-4,-1,9,-3
6891816188,32,21,-6,-35,-7,-3,-1,4
6891830513,-7,11,-1,8,4,5,-1,-2
6891830513,1,-9,5,10,11,6,13,3
6891837358,9,66,12,-2,1,-10,-3,4
6891837358,8,14,-9,1,-6,-1,-8,-3
6891853715,-8,-12,-5,-9,29,8,17,-1
6891853715,-14,-16,16,12,-35,4,-5,-5
6891855220,11,-28,-2,11,-8,-21,-8,-3
6891855220,-13,-13,-7,-3,-8,-3,-1,1
6891867291,4,-20,-5,-17,12,-12,-9,-2
6891867291,-1,-22,-4,10,-43,-9,-5,-3
6891876195,-13,-17,-8,-11,31,13,6,-3
6891876195,-5,-25,-4,8,-6,2,5,-4
6891890413,-5,-17,-12,18,-11,14,1,2
6891890413,17,18,13,-16,17,-12,11,10
6891897304,-14,-25,2,-10,-16,-11,-6,-8
6891897304,-9,-2,6,-5,-8,-4,1,-12
6891912776,-2,-12,-12,-13,-7,0,-1,1
6891912776,2,0,-10,-10,11,-5,-11,-6
6891921184,0,-7,-7,-8,-6,5,0,6
6891921184,8,16,5,13,18,-3,6,-1
6891927207,-2,-3,-11,-23,-16,-9,-3,1
6891927207,-19,-3,-1,6,1,-10,-11,-8
6891936199,24,21,13,18,8,6,2,7
6891936199,-8,-1,5,3,8,21,3,-4
6891950435,-4,-9,-10,-18,-14,-4,0,-2
6891950435,-2,8,-2,-33,-5,-3,-6,0
6891957297,1,-2,7,34,18,-1,6,-1
6891957297,9,11,9,19,-2,8,9,4
6891973037,-22,-11,0,8,8,-5,0,2
6891973037,5,-8,-6,-16,4,12,-6,0
6891979822,-3,-3,-8,-6,-7,0,0,1
6891979822,-3,4,2,2,5,-16,-21,-4
6891987357,10,13,2,0,-2,3,15,-1
6891987357,-2,4,0,7,2,-4,1,0
6891996177,-9,-11,-1,1,-5,-3,-4,-2
6891996177,15,2,-4,-10,4,5,4,3
6892010441,-11,-21,-7,-9,-7,-11,-8,1
6892010441,-4,1,0,15,8,10,3,-5
6892017288,-18,-13,-3,-5,-1,11,7,-1
6892017288,-5,-11,-6,-17,-1,5,-5,-2
6892033082,8,-7,-1,5,-3,-13,-8,-5
6892033082,15,4,1,8,3,-1,-19,12
6892039765,1,-4,-3,-6,-3,-3,5,-9
6892039765,-15,-13,-3,-7,-3,-27,15,12
6892047355,-3,10,11,14,5,47,13,-6
6892047355,8,0,1,2,0,-16,-7,2
6892056169,0,-4,-3,-1,-1,11,-4,-5
6892056169,-1,7,1,-6,-7,-11,-6,7
6892070507,18,7,3,3,2,10,-9,-5
6892070507,-27,-7,-6,2,0,-2,18,1
6892077358,15,2,-2,-2,-1,0,-6,2
6892077358,4,43,11,0,-1,1,12,-1
6892092967,-2,41,-3,3,-8,-13,-16,-3
6892092967,8,-82,-19,-1,-1,-4,-7,-8
6892099827,20,67,23,-7,5,0,8,12
6892099827,-6,-13,-33,1,-5,3,-13,-13
6892116156,-6,35,28,19,5,-5,2,1
6892116156,1,-6,-12,-12,4,3,5,1
6892117699,-46,41,-16,-19,-1,-5,-2,-8
6892117699,25,-81,3,5,2,2,2,1
6892130466,3,29,5,22,10,0,5,3
6892130466,5,49,38,43,-7,-4,10,7
6892137338,-18,-108,-34,-13,-11,-12,-28,-16
6892137338,-35,100,1,-23,-4,-3,-8,-16
6892152964,-5,0,17,-6,-1,-11,-6,7
6892152964,13,77,-22,-12,-2,7,12,4
6892159839,5,-31,11,7,2,2,4,4
6892159839,8,31,-4,-12,0,5,-5,-2
6892176160,-17,9,4,23,-1,-7,-2,-11
6892176160,-17,-25,9,-19,-2,0,13,-6
6892177599,24,-19,-4,-12,-11,-8,-7,18
6892177599,-3,36,9,26,22,16,11,0
6892190417,-4,5,-3,-14,2,-6,-16,-9
6892190417,3,2,-12,-5,-28,-8,-9,-4
6892197280,16,41,-6,-1,9,1,3,-2
6892197280,-33,-16,3,-6,-8,-11,-8,-4
6892212983,13,-26,-9,7,12,-10,-4,-2
6892212983,-34,-21,-4,-19,-3,17,0,-5
6892219862,13,58,12,9,21,-4,8,1
6892219862,-3,-21,-7,4,-4,-2,-7,1
6892236181,9,-9,-17,-20,-8,-2,3,-7
6892236181,-5,-19,5,5,-31,-16,-14,1
6892237696,2,-27,17,5,4,2,1,-3
6892237696,-12,-43,-12,-26,14,9,4,-2
6892249838,9,-38,-5,5,-1,0,5,5
6892249838,15,-11,1,1,3,2,-8,-5
6892258690,-36,-30,-19,-10,-16,-12,-1,-12
6892258690,34,-7,6,7,-16,-1,8,8
6892273058,-35,-19,4,17,11,8,3,0
6892273058,10,18,3,3,30,6,7,-1
6892279792,-4,9,-8,-13,-26,-6,-9,-4
6892279792,4,-5,-4,14,11,-6,-2,-5
6892296161,9,8,-25,-24,-20,-8,1,4
6892296161,-7,-7,-1,7,4,10,1,0
6892297636,5,11,11,31,26,0,-2,-2
6892297636,13,13,-8,-19,0,-1,2,3
6892317983,6,10,7,17,-25,-1,-2,0
6892317983,5,8,-13,10,15,-5,-2,0
6892318640,-11,5,-22,-35,-30,-13,-13,-10
6892318640,-18,-23,11,19,18,12,6,-1
6892333682,14,-10,13,2,8,6,-2,8
6892333682,-17,-20,-4,-8,-12,-9,-7,-6
6892339798,6,-3,3,3,-1,3,-3,-2
6892339798,0,-3,-4,-3,-7,-2,7,1
6892355466,12,14,-4,-15,-2,6,-23,0
6892355466,-22,-14,2,-6,5,-6,3,-11
6892356146,-7,-2,1,10,2,-1,-22,3
6892356146,4,2,0,-6,-11,-10,-17,-6
6892377941,4,-2,-3,-12,-1,-6,2,3
6892377941,12,20,1,3,14,11,20,2
6892378641,-1,-13,-5,9,4,1,12,0
6892378641,-6,9,7,-4,-5,-4,-18,0
6892393596,2,0,-7,-9,0,14,-1,3
6892393596,22,8,3,4,0,-13,-20,-3
6892399860,-20,-1,10,4,3,3,37,3
6892399860,-4,-15,-1,-3,-7,2,16,-2
6892415437,-13,-23,-4,-8,-1,-7,-18,-4
6892415437,1,-3,0,-1,4,4,2,3
6892416108,24,-2,5,3,-5,-3,-11,-1
6892416108,0,-5,-5,-5,-5,-9,-1,7
6892437965,-5,4,-5,-6,-3,16,5,-7
6892437965,5,-2,2,-2,0,-6,-6,0
6892438666,-23,-10,-2,1,-2,-8,-4,-7
6892438666,14,6,5,7,2,12,7,-2
6892453700,5,30,4,-8,-4,-13,7,4
6892453700,-7,-19,-2,-3,0,-4,-1,-1
6892459804,16,15,3,-3,1,6,4,4
6892459804,-8,0,-4,-1,-9,-1,0,-3
6892475459,-2,40,-2,-10,-5,-2,10,8
6892475459,-7,-17,4,32,12,6,-4,-8
6892476210,-1,10,10,17,15,16,9,8
6892476210,-5,-19,-18,-17,-8,-7,-14,-9
6892497970,6,98,30,1,-6,-10,4,2
6892497970,-45,-77,-36,-11,-7,-2,-2,-8
6892498667,4,61,-10,-26,-14,-6,-3,-7
6892498667,-8,-79,-26,9,-1,-8,-8,-7
6892513703,-1,18,2,-4,-1,-2,19,5
6892513703,35,88,39,45,5,-1,-18,5
6892519738,10,5,-14,-27,5,4,-3,-3
6892519738,-24,-33,7,-4,-8,-3,0,-5
6892535403,-47,-128,-31,-14,-1,-5,-8,-16
6892535403,10,24,-6,-31,-8,-1,6,5
6892536162,19,-19,23,32,12,10,2,7
6892536162,22,31,7,12,5,-1,1,4
6892557972,5,42,3,-2,-3,-9,-5,-3
6892557972,-12,-59,-1,9,-11,-5,3,-5
6892558668,12,-11,-10,-24,-11,1,6,4
6892558668,-9,-2,4,9,3,-1,-15,0
6892573707,3,-12,-4,-8,12,4,-12,0
6892573707,-22,24,-8,-15,-4,-2,-6,-10
6892579842,-1,-8,-4,1,-16,-11,-2,-2
6892579842,18,52,1,-4,-3,-2,7,4
6892595479,4,-16,1,17,10,4,0,-1
6892595479,-9,43,-2,-22,5,0,1,-1
6892596165,-3,13,5,3,-28,-11,-9,-3
6892596165,-19,-7,-7,-24,12,0,-1,-10
6892617989,14,-16,-4,-18,-3,7,3,1
6892617989,9,-12,-3,-12,14,-19,-4,-1
6892618667,-17,-36,-10,11,-3,23,10,1
6892618667,4,-13,14,44,14,1,-1,-1
6892633671,4,-7,-11,-25,2,-8,1,0
6892633671,3,-20,6,29,-9,-2,4,0
6892639731,-15,-34,-17,-37,-1,-10,-12,-6
6892639731,-1,4,4,-21,14,0,-6,-5
6892655431,1,-4,9,24,-18,-12,6,-1
6892655431,5,25,13,7,0,7,2,3
6892656166,-10,3,-6,9,2,-15,-9,-8
6892656166,15,23,9,12,-2,2,7,7
6892677961,-20,-27,-21,-40,-16,-18,-10,-12
6892677961,7,-2,-12,-21,-26,-6,-9,0
6892678642,-22,-13,12,-5,-13,-15,9,-15
6892678642,-1,-5,-11,2,43,34,32,11
6892693676,5,-18,-1,40,15,9,-1,2
6892693676,0,3,2,-6,-9,3,1,1
6892699828,2,-1,-3,0,0,1,-5,-1
6892699828,-1,17,8,-14,-27,-8,-1,-1
6892715454,-4,-13,4,7,2,2,3,-3
6892715454,22,18,-4,-1,15,10,2,7
6892716139,-19,-6,5,2,3,0,1,4
6892716139,6,14,-4,-4,-16,-13,-7,-1
6892737928,-18,7,2,13,7,-1,-12,-6
6892737928,9,4,-3,-10,-6,-8,-9,-4
6892738679,-5,6,4,12,13,22,-8,5
6892738679,7,5,-3,-5,-13,2,2,-2
6892753646,32,14,2,0,2,1,10,1
6892753646,-28,-11,-1,0,3,-9,-3,4
6892759783,8,-14,0,8,9,15,-6,-1
6892759783,-4,-19,-7,-5,-6,-5,2,-4
6892782991,-7,-9,-6,-3,-8,-5,-13,2
6892782991,12,-6,2,0,6,-1,2,-2
6892783664,17,9,-1,4,7,12,20,5
6892783664,-14,2,1,-6,-8,-4,-10,-1
6892797960,18,-3,-1,2,-1,-3,4,4
6892797960,-9,-11,1,-1,1,-13,-8,-1
6892798614,3,6,-2,2,2,-4,19,0
6892798614,0,5,-2,-6,-10,-13,-17,-1
6892812310,2,-4,5,6,11,-2,-4,3
6892812310,-25,3,-2,-1,5,2,11,2
6892819801,5,1,-2,0,-5,10,-10,-5
6892819801,0,3,4,3,-3,-11,-45,-3
6892835452,7,6,-7,-6,-4,-10,2,3
6892835452,-6,9,-3,-12,-6,-2,-18,-4
6892836144,0,1,1,5,5,-14,-2,0
6892836144,8,-4,-4,6,0,10,20,7
6892857934,-4,4,-4,-8,-3,9,-5,-1
6892857934,1,5,-1,-6,-4,7,16,1
6892858646,11,11,18,40,3,-3,-4,-2
6892858646,-18,3,-13,-36,-4,-7,25,-13
6892872280,-9,-7,6,-5,-19,-18,-17,-12
6892872280,-5,-9,-39,-24,7,22,20,14
6892879785,19,12,-1,-7,-9,-11,2,1
6892879785,-24,1,0,27,12,-4,-17,-7
6892894765,-12,-7,-10,-9,-7,5,13,-5
6892894765,23,12,10,0,-5,-3,-22,-9
6892902201,-19,12,6,-22,10,10,-13,3
6892902201,5,-9,0,7,-3,-14,30,-5
6892917984,2,9,2,0,9,32,-53,4
6892917984,9,2,-7,7,-6,-13,-44,0
6892918668,8,1,-6,-4,-14,-14,-1,0
6892918668,-40,22,20,32,-6,-3,2,-5
6892932253,-19,-11,-16,-16,-4,-12,-47,-7
6892932253,12,3,9,1,26,12,51,3
6892939753,16,1,-4,-3,2,19,0,-2
6892939753,-4,-3,-4,-23,-15,6,-31,6
6892954786,10,-12,11,31,-14,-15,25,-1
6892954786,-5,-21,0,-11,-7,-5,-2,-4
6892962290,-15,-27,-3,15,-4,0,6,1
6892962290,25,-17,-4,5,30,8,3,2
6892977916,6,0,-4,9,11,4,-34,1
6892977916,-10,2,6,-1,-8,4,26,-8
6892978641,-16,-13,-11,-9,-13,-25,-19,-4
6892978641,11,-13,3,5,-27,-5,1,0
6893000487,-11,-2,-4,-30,-18,-2,23,-9
6893000487,-4,1,-7,19,44,10,-9,-3
6893001101,-12,-2,5,23,-32,4,-1,-2
6893001101,9,0,-11,-38,15,11,0,0
6893014738,13,9,13,43,23,-10,36,7
6893014738,-19,-27,-1,-3,-1,0,-20,-15
6893031177,-3,-5,-8,-14,8,2,38,3
6893031177,10,1,-17,-9,-27,-12,-6,-4
6893032640,-8,-4,-5,-21,-18,-5,21,5
6893032640,-2,-2,-8,-31,-23,-8,-20,-4
6893037263,4,-2,4,8,13,-12,-38,-3
6893037263,-13,12,10,22,6,9,5,3
6893052282,3,4,-5,-11,8,5,22,2
6893052282,3,6,13,15,-6,-8,-8,6
6893059795,0,9,-22,-54,-16,-10,-11,-7
6893059795,10,8,20,17,19,7,12,4
6893074777,0,12,10,13,15,7,5,0
6893074777,11,14,8,24,-10,-1,0,2
6893082324,-6,13,1,-9,3,-11,-3,-1
6893082324,-6,-17,-2,-19,-12,-1,-3,-3
6893097907,-4,-8,4,11,0,-1,7,-2
6893097907,2,-1,-11,-13,-19,-4,-2,-6
6893098705,0,1,6,7,12,-6,-16,4
6893098705,3,1,-12,-1,5,-6,2,-6
6893112332,-2,2,-4,-12,-6,12,-12,5
6893112332,0,3,4,7,0,-8,0,0
6893119875,2,0,-7,-9,-5,13,5,-1
6893119875,1,1,1,3,2,2,27,-6
6893134671,-6,2,5,7,12,-28,-8,5
6893134671,-9,-6,-9,-7,-4,33,23,-9
6893142167,3,0,3,5,1,2,29,0
6893142167,7,3,-1,-9,-3,-7,-7,4
6893157976,-7,-4,-2,-5,-2,-9,5,-10
6893157976,-8,-6,2,3,3,-3,6,1
6893158574,-3,-11,-1,1,4,-10,-3,-3
6893158574,12,-1,-6,-8,-8,11,-6,2
6893172296,-5,-8,1,-5,-4,-5,-6,-5
6893172296,4,-12,3,0,2,-4,1,5
6893179684,1,-10,1,1,0,2,-9,-2
6893179684,-6,-4,11,9,4,-8,-11,2
6893194765,-2,-14,-21,-15,-5,8,1,-2
6893194765,8,5,9,-1,-11,-6,-2,5
6893202173,6,-5,-8,-8,8,3,-1,1
6893202173,6,9,0,10,-2,-5,0,3
6893217909,-24,-19,4,10,2,21,11,-8
6893217909,9,15,-10,-15,-3,-3,-1,1
6893218655,0,2,7,-6,0,-16,-12,5
6893218655,-20,-2,3,11,-13,8,8,-7
6893232173,8,25,0,-3,12,4,-10,5
6893232173,-3,-2,-7,-4,3,-2,0,-1
6893239736,-2,12,18,35,7,7,-1,0
6893239736,13,-6,-11,-27,-2,-7,-4,1
6893254672,-6,-12,1,-2,-1,2,9,0
6893254672,-14,30,-1,2,-7,-6,-9,-10
6893262151,18,17,21,33,3,1,6,1
6893262151,-5,-11,-30,-28,-8,-8,-4,1
6893277952,6,27,-9,-21,-1,0,-3,-2
6893277952,24,-55,-1,-11,-1,-4,-1,7
6893278595,-40,-5,-1,10,4,4,-5,-13
6893278595,31,63,18,-8,-3,-4,-15,5
6893292280,-18,-6,3,2,-12,-5,3,1
6893292280,13,10,17,36,5,0,0,5
6893299802,15,32,-30,-37,2,6,3,0
6893299802,-29,-21,1,5,6,0,-3,-7
6893314785,16,5,4,26,3,1,3,-1
6893314785,-19,-8,4,-7,-10,-6,-6,-1
6893322280,16,19,-7,-11,-11,-1,3,4
6893322280,-5,15,-4,-12,5,-2,-3,-1
6893337937,14,-2,8,-1,-10,0,-13,-1
6893337937,-14,-5,2,-15,-3,-13,1,-5
6893338643,-12,-16,-8,-6,-4,5,-3,-8
6893338643,7,14,-2,0,-1,-5,2,0
6893352212,-6,-24,2,-2,4,17,12,7
6893352212,-13,-1,3,6,13,-1,-14,-3
6893359662,-10,-30,-3,-2,-7,-10,4,2
6893359662,0,-42,2,10,-13,-10,-12,0
6893374761,3,-6,-7,15,7,3,-4,-7
6893374761,4,13,4,25,6,10,13,4
6893382292,-1,-15,0,-36,2,-1,1,-2
6893382292,4,-10,3,51,33,9,0,-2
6893397934,-5,6,-5,-27,-15,-12,-2,2
6893397934,-1,-7,-15,1,2,-4,-5,-4
6893398619,-18,-32,-3,3,-15,-9,-5,-8
6893398619,2,-26,-11,-33,-28,-2,7,-5
6893412300,10,21,6,7,17,6,-1,5
6893412300,-8,-4,10,13,-6,-3,-11,-4
6893419782,6,12,3,16,14,4,1,1
6893419782,-11,-10,12,1,11,6,0,0
6893434789,7,6,-10,-11,-12,-10,2,-2
6893434789,6,10,0,-12,-14,-12,-31,1
6893442283,-14,-12,-4,-5,12,2,6,-1
6893442283,16,28,-29,9,4,-3,-2,6
6893457886,-21,-1,11,-8,0,10,0,-15
6893457886,9,3,7,11,-7,-10,-1,2
6893458592,1,21,-5,-16,-7,-5,-11,-1
6893458592,1,-1,8,4,-8,-6,1,2
6893472132,-7,-14,1,1,-4,-13,-11,-4
6893472132,-6,-16,-19,-14,-3,-5,6,-8
6893479698,4,7,0,8,-2,-1,13,6
6893479698,-11,-5,5,-6,-5,2,0,-7
6893494819,1,-16,-23,1,1,-11,-20,0
6893494819,0,0,-9,-19,-3,5,16,-3
6893502194,4,-1,5,19,6,9,-33,9
6893502194,-11,-8,8,-4,-3,-9,-25,-8
6893517935,7,-8,-3,0,3,10,30,5
6893517935,3,9,-9,-5,-2,3,4,-1
6893518613,-2,-7,3,1,-3,-14,-7,-5
6893518613,0,-4,-5,-3,3,4,28,1
6893532313,-1,2,5,-2,-8,-10,-30,-3
6893532313,5,-15,2,3,2,4,7,7
6893539797,0,-15,-4,-1,1,7,8,-2
6893539797,-4,-10,8,-5,-2,-10,-10,1
6893554779,-13,-8,0,0,-3,-4,-22,-3
6893554779,-2,-11,-2,-2,4,-4,2,0
6893562280,6,-5,-2,-5,-5,11,5,0
6893562280,8,5,-2,1,1,2,-1,1
6893577882,-9,-1,-1,-2,-3,1,4,-2
6893577882,-10,2,-3,-3,0,-6,3,-3
6893578594,-6,0,0,1,-1,-3,-9,0
6893578594,-1,-2,0,-3,-3,4,1,-1
6893592215,22,5,-4,-3,-3,-3,16,0
6893592215,-11,18,6,-1,2,7,5,4
6893599732,-5,-3,2,3,-2,-8,3,-2
6893599732,-3,-1,-10,-3,2,7,3,-3
6893614760,11,12,-1,1,-2,-3,-1,4
6893614760,-11,8,1,4,-5,-1,-4,-1
6893622286,4,8,5,2,-5,-11,-5,-4
6893622286,-18,-5,-7,-6,5,8,0,-4
6893637944,0,-22,13,7,4,1,7,3
6893637944,13,34,-12,1,-2,2,-5,-3
6893638623,13,8,-11,-14,3,-2,5,7
6893638623,-23,-14,14,9,-7,-9,-3,-7
6893652280,6,-21,-22,-36,-3,5,15,3
6893652280,-3,17,6,9,9,7,1,2
6893659780,-13,-18,-1,2,-6,-3,3,-4
6893659780,23,-7,27,37,1,2,1,3
6893674813,-8,51,-10,-17,-8,0,-2,3
6893674813,7,-81,9,-5,10,-1,-1,2
6893682307,4,42,-30,-15,5,6,4,-2
6893682307,23,63,15,-4,-11,-4,3,9
6893697878,-21,-85,-13,21,1,-7,-2,-12
6893697878,-14,-6,-1,-10,-3,5,-11,1
6893698594,5,-39,10,0,5,2,2,0
6893698594,1,-6,-17,-23,-5,-1,-6,2
6893712165,21,63,26,30,-3,-2,0,1
6893712165,4,23,-11,-14,-6,-7,-2,-5
6893719708,-39,-17,-6,-20,-6,0,-10,-11
6893719708,5,16,-11,-9,-1,-2,-3,-2
6893734780,-19,17,5,3,7,1,7,-2
6893734780,5,15,2,28,-15,-10,-7,-1
6893742255,-12,16,-10,-29,-9,-12,-1,-11
6893742255,9,-13,3,13,13,1,37,6
6893757852,11,0,-4,-24,-4,10,4,6
6893757852,1,-14,-5,0,9,-1,-6,-4
6893758724,1,-21,17,19,-12,7,7,-1
6893758724,-5,-37,-16,8,3,-12,-12,-5
6893772282,3,-29,-6,8,12,-9,-58,-4
6893772282,5,3,13,37,-4,28,41,6
6893779786,-9,-23,5,-13,14,-18,1,-1
6893779786,-10,-15,-16,-18,-12,0,-16,-6
6893794735,-4,10,-4,3,-11,-17,-5,-4
6893794735,4,3,-8,-24,12,-1,7,-1
6893802170,19,16,6,28,-4,10,-35,3
6893802170,-6,10,6,4,1,-2,30,0
6893817889,-7,-6,-7,-14,-7,-14,11,-5
6893817889,-1,8,7,9,-3,12,-2,-1
6893818589,6,3,-16,-22,0,1,10,0
6893818589,-4,5,-14,-10,-3,-5,-16,-1
6893840397,4,10,11,3,1,11,14,2
6893840397,-7,-3,-14,9,3,-12,0,-4
6893841036,3,15,6,18,8,4,4,5
6893841036,-8,-10,1,-4,-5,-5,-17,-4
6893854721,0,12,0,5,-2,12,16,-2
6893854721,-14,-17,-3,-18,-8,-10,-20,-4
6893862243,4,-2,-11,-7,-8,-6,-1,1
6893862243,4,8,3,-9,-4,5,-8,3
6893877238,2,5,3,19,4,-18,5,0
6893877238,-4,-13,-3,-20,2,6,-10,-5
6893892929,-4,-4,8,14,5,15,6,2
6893892929,-3,1,-2,-1,-4,-5,-4,-2
6893900400,-4,-9,-7,-8,-2,-3,-18,-3
6893900400,9,-3,1,-3,-5,-1,3,7
6893901077,-9,6,-3,-1,-5,-5,-1,-6
6893901077,3,-2,3,-1,0,0,-7,3
6893914739,-5,-2,-6,-7,-2,6,-1,-1
6893914739,2,1,-4,-6,-4,-12,-12,-5
6893922256,3,-2,11,9,5,-4,4,5
6893922256,-10,-7,-2,-4,0,14,-1,-5
6893937247,-4,-1,3,0,-2,-2,3,-1
6893937247,-7,-7,0,-4,-3,-2,4,-3
6893945354,3,-9,2,3,-1,-1,-1,1
6893945354,9,1,-3,-3,-2,-17,-2,-2
6893952260,-9,-8,1,0,0,28,5,-5
6893952260,-6,-10,0,0,1,7,-24,5
6893959750,3,3,-4,-6,-7,-11,-8,-3
6893959750,9,2,-1,5,-1,5,1,3
6893974706,-1,-3,-1,-3,-2,-6,-4,-6
6893974706,-9,4,0,-6,-3,-11,-6,-5
6893982188,-2,1,-3,1,-2,13,9,-2
6893982188,0,-2,1,0,3,4,1,2
6893997235,5,0,-1,-1,-3,-8,1,2
6893997235,-4,12,-1,-3,-7,-7,2,-7
6894005445,1,-2,2,1,0,-6,0,0
6894005445,9,3,0,-6,9,8,2,1
6894020416,-3,11,-1,-3,-2,0,7,0
6894020416,0,-5,-2,-16,-13,-9,-2,2
6894021067,2,13,4,21,2,0,1,-1
6894021067,-24,-10,-13,-11,-9,-10,-15,-8
6894034668,-7,-36,3,4,3,1,4,-3
6894034668,6,2,-13,-19,4,4,8,1
6894042250,3,24,-3,-5,-9,-3,-2,4
6894042250,13,25,21,3,-3,2,2,3
6894057210,-5,-44,-21,-10,-2,-7,-6,-7
6894057210,-5,-9,15,33,-1,0,6,5
6894065469,14,-28,1,-17,1,3,0,-3
6894065469,0,25,10,3,2,0,0,-3
6894080388,-39,25,-19,-27,-6,-4,-1,1
6894080388,10,23,4,7,8,2,5,2
6894081068,15,-2,2,3,0,-1,-3,0
6894081068,-23,-15,-7,2,5,6,2,-8
6894094666,28,9,12,28,2,-4,-4,2
6894094666,-6,5,-11,-19,-7,-4,-7,-1
6894102157,-40,31,0,-7,-6,-4,3,1
6894102157,22,16,2,13,6,1,7,6
6894117221,13,42,8,0,-4,4,7,4
6894117221,-3,-43,-13,-16,6,-3,15,0
6894125385,13,10,0,10,-2,-5,-17,-2
6894125385,-26,-16,-6,-11,-9,-6,-4,-10
6894140378,2,3,-6,-11,-1,0,18,0
6894140378,8,5,9,8,2,13,27,5
6894141092,-10,-9,4,6,5,2,5,-3
6894141092,-6,-38,-14,-2,3,-9,-1,4
6894154756,11,-9,2,8,-6,0,-5,-1
6894154756,-7,-9,-11,-23,-10,-11,-17,-8
6894162170,-6,-25,-12,-4,3,7,14,1
6894162170,3,-1,6,22,4,24,9,2
6894177299,-2,-15,3,-5,11,-12,-9,-1
6894177299,-6,3,6,-5,14,9,-6,-3
6894185421,8,7,-19,-12,-1,-7,-1,5
6894185421,4,-5,-15,-33,-10,-13,-12,-5
6894200419,-6,8,14,10,-2,8,4,0
6894200419,0,9,3,28,-2,-10,-7,-2
6894201066,-1,-4,7,-10,-4,-2,-2,-6
6894201066,-3,0,4,-7,-6,2,4,-1
6894214689,0,-17,-17,-16,-8,-5,-6,0
6894214689,-10,1,1,7,4,0,-7,-6
6894222262,3,6,5,-3,-9,-10,-9,-5
6894222262,1,-1,4,-6,-5,-11,7,4
6894237216,3,1,4,14,3,13,-2,0
6894237216,19,19,4,6,-8,-14,-6,0
6894245416,-16,-19,-1,-3,-2,-1,-1,-8
6894245416,-7,0,-11,4,5,1,-5,-7
6894260425,6,4,2,3,5,-4,-5,9
6894260425,1,9,2,-1,-3,11,5,-1
6894261078,7,-2,-6,3,2,-9,-1,4
6894261078,-10,-7,3,5,1,-4,9,-6
6894274699,11,2,1,1,-1,-5,-9,-6
6894274699,-29,-5,-4,-6,-5,-17,4,-3
6894282284,-6,-9,1,-4,-10,26,-15,-3
6894282284,-5,-6,-6,-1,-1,-4,-18,-5
6894297181,-4,6,1,2,4,-2,0,-7
6894297181,11,2,-1,-2,2,1,6,4
6894305436,11,3,0,-1,1,4,7,0
6894305436,-11,-1,-3,-5,-12,-19,-13,3
6894320359,-10,-2,1,-7,-6,-1,7,-12
6894320359,10,-11,-2,3,4,20,23,7
6894321067,-8,-8,-2,2,0,-9,-8,-1
6894321067,8,-1,3,1,0,-4,-3,-2
6894334711,-2,-2,-5,-3,-2,-13,-3,3
6894334711,0,-12,4,-2,-1,8,-9,-2
6894342203,-12,-7,-2,-1,0,10,9,0
6894342203,-1,2,-5,1,3,2,3,-2
6894357236,10,0,-2,-3,-1,7,11,3
6894357236,-5,-6,-1,0,1,4,0,0
6894365387,3,4,0,3,1,-14,-14,-2
6894365387,-10,-9,-1,1,-1,3,-6,-3
6894380259,-12,-8,-3,-2,-1,4,-14,-2
6894380259,27,12,-1,-3,-5,-6,-5,6
6894381181,-21,12,3,2,0,2,-11,-4
6894381181,0,-11,1,4,-2,-7,-1,6
6894394730,2,7,4,-5,-2,-1,4,1
6894394730,-5,6,-10,-17,-4,-3,-2,-4
6894402204,14,-5,-2,27,4,-7,6,4
6894402204,-9,11,-1,-16,-2,8,6,-1
6894417234,-6,22,27,36,3,2,-1,2
6894417234,8,-19,-21,-21,4,0,-9,-2
6894425341,-3,5,-8,-10,-8,-3,6,1
6894425341,7,31,17,1,-8,-1,-5,-3
6894440397,-23,-79,-31,-24,-5,4,2,-6
6894440397,5,40,22,14,14,-6,-6,-2
6894441060,9,-12,-26,-29,-5,-4,0,-1
6894441060,-10,17,1,8,-3,3,5,3
6894454746,9,38,11,-19,-8,-8,-7,2
6894454746,-19,-91,-10,7,-5,-5,-9,-6
6894462237,16,-14,10,0,-8,-4,-1,-2
6894462237,-11,15,-5,-2,-2,-3,0,-7
6894477220,-7,1,6,14,9,-11,-13,-3
6894477220,-7,42,-8,-5,4,33,3,-6
6894485429,1,22,8,4,8,5,16,6
6894485429,14,-35,4,13,-11,-19,11,3
6894500373,-11,4,-14,-15,6,18,-20,-2
6894500373,9,35,-12,-17,-9,-15,6,1
6894501077,-22,19,17,6,5,-7,-3,-2
6894501077,23,30,2,0,1,11,-26,-1
6894514736,0,-15,-12,-3,-10,-14,12,2
6894514736,-6,-7,11,7,-6,-10,-11,-3
6894522229,-4,-5,-6,3,9,27,12,-7
6894522229,-10,-11,11,16,12,-2,-5,4
6894537187,21,-17,-2,-12,2,-1,-4,2
6894537187,-18,-14,2,-8,-12,-11,-13,-4
6894545407,-3,-22,0,-10,-13,-14,-5,-10
6894545407,14,-37,-11,-15,-14,-9,5,1
6894560445,-7,-9,-6,-1,8,10,3,0
6894560445,-2,-9,8,30,3,0,12,-2
6894561094,-12,-39,-25,-35,-8,-10,-9,-5
6894561094,4,14,8,-4,4,11,4,1
6894574712,2,12,3,12,-6,-6,1,0
6894574712,-11,-17,-10,-20,-19,-13,-7,-8
6894582203,6,6,5,12,6,-3,-7,0
6894582203,-4,-7,-20,5,9,4,17,-2
6894597211,4,26,4,7,1,-3,15,2
6894597211,-10,-11,9,0,-3,10,5,-7
6894605415,-11,-1,-5,-14,-16,-11,2,-3
6894605415,5,-9,-16,-23,-1,3,-10,2
6894620380,8,13,-2,17,-4,-14,-8,0
6894620380,-3,6,-3,-13,6,5,9,3
6894621045,4,3,8,8,10,5,8,4
6894621045,-3,-2,2,-10,-7,-6,3,0
6894634705,-8,-12,1,0,-5,0,1,-12
6894634705,5,10,-5,-4,4,1,16,8
6894642238,7,4,-6,-3,1,3,0,1
6894642238,0,3,3,15,-1,-2,-8,-1
6894657202,-1,-3,9,-9,-6,-1,-6,-2
6894657202,3,1,-8,3,15,10,12,2
6894665434,5,2,6,20,1,-1,0,3
6894665434,-19,-35,-9,-10,0,-16,-3,-6
6894680306,-10,8,0,1,2,21,2,3
6894680306,6,2,-1,-10,-13,-8,-17,-3
6894681119,0,-1,4,10,5,6,4,-1
6894681119,13,9,-10,2,-1,4,-5,1
6894696075,-13,-11,-10,-18,-7,-15,-8,-4
6894696075,1,3,4,16,5,0,-7,2
6894702100,7,-1,0,0,-3,-3,-2,2
6894702100,-2,5,2,-13,-4,1,-4,-3
6894717207,-5,-5,-2,10,-1,-3,-6,-6
6894717207,8,-2,-7,0,0,-1,24,2
6894725310,-11,2,5,4,1,-2,3,-3
6894725310,1,-10,-1,-5,2,3,-12,-1
6894740361,13,5,-3,-4,0,-3,-5,1
6894740361,-1,18,5,3,-4,-23,-13,-2
6894741043,8,-4,2,-2,-1,18,5,0
6894741043,-7,-12,-6,0,1,10,4,3
6894754719,2,1,4,4,4,-8,-6,2
6894754719,-12,-13,1,1,-3,7,11,-9
6894762220,27,-9,-9,-7,-2,-7,23,3
6894762220,-7,15,5,7,3,5,9,0
6894777128,-4,-19,-5,-2,-3,4,-19,0
6894777128,2,13,6,-2,-4,-9,-15,1
6894785416,-4,-12,-5,10,3,-2,-17,-12
6894785416,17,23,-1,-4,3,0,13,4
6894799697,-17,1,-9,-15,-6,-4,14,1
6894799697,1,-14,11,23,-4,-3,-10,-1
6894807907,7,19,-7,-8,5,1,-9,3
6894807907,-3,-9,-6,1,1,-2,-3,-2
6894814707,-22,-6,1,-9,-2,1,2,-6
6894814707,37,-19,22,34,0,7,-6,8
6894822201,-57,22,-22,-31,-2,-6,-7,-4
6894822201,5,36,11,7,-8,-8,0,2
6894837131,-14,-53,-13,-1,0,3,5,-11
6894837131,2,16,-10,-4,14,10,3,4
6894845382,16,-80,-2,-3,4,0,-11,-3
6894845382,5,11,5,-4,-11,-6,2,1
6894859730,20,74,14,-7,-9,-5,18,6
6894859730,-13,-9,-13,-9,-4,-7,-13,-7
6894867886,-21,47,7,15,2,-17,-1,7
6894867886,-20,-48,-16,-9,10,27,-17,-14
6894883583,26,-25,12,18,-11,-8,-6,2
6894883583,-13,25,-1,-12,-7,-17,-6,-1
6894884266,5,24,9,-8,8,22,7,0
6894884266,-9,13,2,5,-6,-7,6,0
6894897185,1,-22,2,21,8,-2,3,2
6894897185,-3,20,-18,-44,-9,-2,-12,-3
6894905407,5,6,-1,14,-9,3,-9,1
6894905407,-5,-7,13,18,1,-17,-2,-3
6894919669,10,44,-10,-22,0,12,-10,2
6894919669,1,0,0,12,-3,-8,-4,-3
6894928586,2,-26,3,-14,-8,-4,5,-4
6894928586,-1,12,0,9,2,3,-19,6
6894934697,-9,0,-11,-19,-14,-5,-10,2
6894934697,2,-20,10,3,12,5,-7,3
6894951048,-1,-7,7,21,8,12,11,1
6894951048,-6,-32,-10,-14,-7,-4,1,-7
6894957164,-1,-8,6,10,6,0,5,5
6894957164,3,-17,3,4,11,7,16,2
6894972235,0,-12,0,10,-10,-14,-19,-3
6894972235,4,14,-1,-2,-6,-8,-6,-2
6894979697,15,8,7,11,11,5,25,3
6894979697,-3,-4,-3,7,-8,3,-1,5
6894988587,-11,-14,-7,-26,10,-3,2,-9
6894988587,0,12,-11,-3,-3,-6,4,6
6895002196,-13,-21,-13,-34,-11,-11,-9,-17
6895002196,1,4,4,8,-3,4,-1,-2
6895011085,-5,-7,-7,-16,-15,-14,-10,-3
6895011085,10,-5,3,21,11,-1,-1,-2
6895017179,-3,8,-1,11,5,16,4,-1
6895017179,-18,-10,3,-9,-1,1,-31,0
6895026088,12,25,0,3,-9,-6,-3,-1
6895026088,-7,-17,0,-16,-4,4,6,-7
6895039704,1,8,4,17,12,-15,13,4
6895039704,12,6,-5,-2,-4,19,8,-2
6895048574,3,21,6,-2,-3,1,1,4
6895048574,-1,11,9,1,7,-2,6,1
6895062189,-9,-8,0,12,-2,5,4,-1
6895062189,7,2,2,-15,-6,-19,-4,-3
6895071065,9,2,2,11,5,-3,0,6
6895071065,3,5,2,-4,2,8,11,-3
6895077203,-3,-1,-4,-8,-5,-11,-1,-4
6895077203,-6,0,-6,2,-1,-13,0,3
6895086072,-10,-1,7,5,1,20,-5,-5
6895086072,6,-7,3,4,-5,-13,1,2
