timestamp,emg1,emg2,emg3,emg4,emg5,emg6,emg7,emg8
6032254215,-6,16,-12,-2,-2,6,-12,-3
6032254215,2,23,-7,3,-1,-5,0,-1
6032255139,-3,-19,24,5,-7,-6,-3,-3
6032255139,3,-3,-6,-14,4,-1,-1,1
6032255919,-1,22,-52,9,-6,-14,0,-4
6032255919,2,-16,14,-1,1,17,0,-1
6032258782,2,-14,-28,-23,-1,2,2,2
6032258782,-8,24,25,18,-3,-5,-2,-5
6032267371,0,-3,15,1,5,1,0,-5
6032267371,-6,-30,-21,-7,-6,-7,-5,-1
6032274549,6,22,12,2,-4,0,0,-2
6032274549,1,-1,1,2,4,5,2,2
6032282337,-4,-27,-2,3,2,2,2,-2
6032282337,2,8,6,2,-5,-6,-4,-1
6032295945,-6,14,2,-5,-2,-4,-4,-2
6032295945,-5,-17,-20,-8,-13,2,-14,-8
6032307375,2,-12,16,4,8,0,7,5
6032307375,3,15,-9,-2,-2,-3,2,0
6032310966,-1,-3,-46,14,12,5,3,-1
6032310966,0,-11,-2,-12,-6,-4,2,-1
6032327416,1,9,-5,-1,-4,-3,-5,-2
6032327416,-3,3,8,0,-1,-2,-3,-2
6032334503,-3,-8,17,-4,-5,-5,-3,0
6032334503,-3,3,7,5,9,3,6,0
6032374920,5,27,-16,-11,-7,-4,-4,0
6032374920,-2,-24,-13,-9,-7,-4,-1,-2
6032375847,-1,-20,1,6,-4,-1,0,2
6032375847,-3,27,-14,-5,0,-2,-5,-5
6032378880,-5,-13,9,-3,-4,-6,-4,-1
6032378880,2,-18,-22,-3,4,5,3,-1
6032379525,4,28,-11,-6,-2,-3,0,-1
6032379525,-1,-4,9,9,-5,6,-10,-1
6032393858,8,-25,-57,-6,6,-1,4,0
6032393858,-17,28,37,-8,-12,-9,-8,-4
6032394572,-6,5,3,-15,-7,-5,-7,-4
6032394572,2,-20,-6,13,19,6,8,2
6032402060,2,-6,6,6,0,3,0,-1
6032402060,8,14,0,5,3,3,2,2
6032415732,-1,-13,-21,-10,1,-6,-1,0
6032415732,1,-11,7,-3,-8,-5,-2,0
6032424614,-4,15,26,16,3,-1,-3,1
6032424614,1,5,47,-3,-4,-7,-5,-1
6032438928,-7,-11,8,-1,-3,7,1,-4
6032438928,6,5,-45,-9,-6,-6,-1,2
6032445681,-1,8,3,-6,-3,5,2,-1
6032445681,-6,-16,-2,4,3,-6,-2,-1
6032453142,-3,0,8,6,1,-4,-3,-3
6032453142,-4,6,2,-4,6,10,3,-2
6032462137,1,-2,11,20,1,-14,-3,0
6032462137,8,-1,0,-14,-5,8,-1,1
6032475736,-6,-3,-18,0,-2,3,-2,-3
6032475736,2,4,33,7,2,-4,1,0
6032484591,-11,-17,-22,-22,-8,-9,-4,-4
6032484591,2,6,-23,5,-2,-9,2,0
6032498919,9,1,-3,8,8,4,0,1
6032498919,-9,-6,16,-7,-5,-13,-10,-2
6032505682,-3,-3,18,4,4,14,1,-1
6032505682,-1,3,-20,-2,-2,-6,2,-3
6032513188,2,1,12,-1,-3,16,-3,-2
6032513188,0,-6,-82,-12,-10,-13,-5,-1
6032522121,-1,8,24,-1,1,-9,0,-3
6032522121,0,-7,-19,4,5,16,-2,1
6032535667,-4,-3,-7,0,-2,-9,4,0
6032535667,-1,6,17,3,3,8,1,-3
6032544594,-7,-13,-52,-6,-5,-1,-6,-3
6032544594,2,0,7,-5,-7,-4,3,-4
6032558245,-1,8,42,4,-3,-9,-5,-5
6032558245,1,-2,15,7,9,3,6,3
6032567071,5,-1,9,-7,0,2,7,0
6032567071,-2,-7,20,14,4,4,-15,-2
6032573180,-11,-3,-23,-24,-13,-7,0,-2
6032573180,4,1,23,4,-10,-6,1,0
6032588187,6,-5,-10,27,14,-1,-2,2
6032588187,2,8,-8,-10,1,3,2,1
6032595667,-18,-9,-12,6,-3,-7,-3,-3
6032595667,-3,-5,37,6,-4,-1,-3,-6
6032604597,2,4,-70,-18,-9,1,-2,0
6032604597,-1,0,48,9,-1,0,0,-1
6032618153,10,5,12,-18,4,-15,-4,3
6032618153,-9,1,-69,-23,-14,-2,-4,-1
6032627094,-7,-1,1,1,-2,25,-11,-3
6032627094,-1,9,18,6,11,8,10,1
6032633173,-3,19,-50,9,6,-3,-5,-5
6032633173,1,5,16,3,5,0,1,0
6032648121,8,22,35,-14,-15,-20,-6,0
6032648121,0,42,-70,-2,-3,-4,-3,0
6032655697,8,64,35,9,3,7,-1,3
6032655697,3,31,-10,5,9,4,5,0
6032664580,-22,17,19,7,0,-1,3,-4
6032664580,8,-20,20,-9,-4,-3,-7,-2
6032678182,1,-60,-9,-8,-9,-9,2,3
6032678182,4,-16,24,1,-5,3,-14,-4
6032687105,8,9,17,-5,5,11,3,2
6032687105,-2,-17,-12,10,-4,-5,-2,-3
6032693125,1,3,59,-1,0,2,1,1
6032693125,-14,-24,-51,-12,-2,5,-2,-4
6032708205,-3,-25,24,1,-3,-1,2,-3
6032708205,-2,-34,-25,5,2,-5,7,-1
6032715749,8,-11,-3,5,2,4,-2,-1
6032715749,1,-15,23,1,-9,-14,1,-1
6032724556,0,-8,22,15,3,2,0,0
6032724556,-3,-8,-34,-16,-2,-11,4,-5
6032738113,-2,-8,-3,-6,-8,19,-6,2
6032738113,1,-16,-45,3,7,-12,-4,-3
6032747109,-7,-2,56,-4,-7,2,-6,-3
6032747109,9,24,29,8,10,4,4,3
6032753172,-11,-14,-23,2,-5,0,3,-5
6032753172,5,-8,-16,-5,-1,-6,-27,2
6032768190,7,12,48,2,5,0,37,7
6032768190,-9,6,-52,-6,-6,-5,-4,-2
6032775534,3,-7,5,-2,-2,-5,-3,-1
6032775534,0,-2,11,-2,-2,15,1,-2
6032784573,-7,-3,-24,3,5,-17,-9,-4
6032784573,-6,-9,41,3,-6,1,-10,1
6032798184,8,-15,-20,-4,-1,-10,4,0
6032798184,1,-3,2,-5,2,9,14,0
6032807071,10,-8,10,8,5,4,-8,-2
6032807071,1,-9,10,-11,-12,-2,-1,3
6032813183,-18,-6,-22,-6,-4,-8,-7,-3
6032813183,7,17,39,2,-5,-5,5,0
6032828144,3,-8,-78,-9,3,-8,-3,0
6032828144,-9,-10,2,9,-8,9,-6,-8
6032835700,-9,5,-6,-12,9,3,3,1
6032835700,0,2,53,8,9,5,7,2
6032844594,-3,-14,3,-2,-9,-2,-4,-3
6032844594,-4,-6,-12,-12,-2,-5,-1,0
6032858081,15,6,-23,11,-1,-1,-1,-1
6032858081,-16,-13,-2,-4,-2,3,5,2
6032867077,-8,-2,21,0,-2,-1,-5,-4
6032867077,6,1,16,4,6,-2,-1,-2
6032873176,16,-7,42,21,7,9,2,5
6032873176,-6,7,-30,-12,-3,-6,-1,-3
6032888124,-1,-1,-25,-16,-10,-5,-6,0
6032888124,-2,-12,-5,27,-4,-3,-4,-1
6032895655,0,-8,-11,-21,4,-3,2,-4
6032895655,-6,-5,7,0,-6,-1,2,-4
6032904698,-9,-2,4,-6,0,2,-2,1
6032904698,-1,-2,-45,-6,7,2,-1,-2
6032918122,-8,-4,-1,11,-1,-2,-1,-4
6032918122,5,10,18,8,1,1,5,4
6032927098,1,-9,-18,-13,-11,-6,-5,-3
6032927098,0,-6,4,-3,-7,-4,3,0
6032933140,1,8,29,7,7,-2,-3,-1
6032933140,-13,-9,-21,-5,3,5,4,-6
6032948188,22,41,-19,12,10,5,5,8
6032948188,-4,-13,7,-8,-2,-2,-20,-4
6032955668,-3,4,-5,-2,-3,-5,4,0
6032955668,2,-2,6,2,-2,1,-11,1
6032964536,3,-9,-3,-8,-11,-7,-2,-2
6032964536,0,6,-5,-3,3,3,0,3
6032978073,-6,15,-12,2,0,3,-2,-10
6032978073,5,7,33,3,1,-7,-6,0
6032987072,-9,-4,-2,-3,-5,-4,-2,-4
6032987072,2,7,-33,-13,1,-2,2,1
6032993228,0,-5,1,9,1,3,-1,2
6032993228,5,1,18,27,3,1,4,-2
6033008208,-3,-4,4,-26,0,0,-2,-1
6033008208,-11,-2,46,0,-8,-8,-1,-6
6033015663,-3,-7,-24,-16,-5,2,1,0
6033015663,1,5,-9,11,-1,-3,-2,-2
6033024554,-5,-8,2,7,7,0,5,-3
6033024554,4,9,-34,-6,3,5,7,0
6033038118,1,4,15,-10,-6,-5,0,0
6033038118,-1,2,-12,-2,-2,-3,0,2
6033047024,1,-7,13,5,-4,-2,-8,-3
6033047024,1,-1,-25,1,0,-2,6,-2
6033053246,1,-1,2,25,9,5,-1,0
6033053246,-11,-13,-5,-28,-6,-3,0,-1
6033068065,-1,5,-28,1,-2,-1,1,-2
6033068065,-7,2,28,3,2,-5,-1,-4
6033075726,0,-5,15,-3,-5,3,2,3
6033075726,-3,0,13,-1,-4,-4,-3,-4
6033084563,-1,0,-2,3,2,1,1,3
6033084563,2,-1,-1,-3,-2,0,0,0
6033098881,3,0,-14,-9,-4,-9,-3,-2
6033098881,-11,-4,14,13,7,8,2,-6
6033105548,-3,0,8,6,-1,1,-3,-1
6033105548,0,-2,-20,-17,3,1,8,2
6033113149,-2,3,6,11,3,-1,7,2
6033113149,6,0,-15,-13,-4,0,-12,-1
6033129540,-2,-2,53,16,-4,-4,-2,-4
6033129540,0,9,-5,-2,0,4,0,1
6033135673,-1,3,6,17,-1,-3,-3,-1
6033135673,2,7,-26,-27,-3,-2,3,1
6033144550,-11,-14,-10,-9,-4,-2,1,-5
6033144550,-2,-2,1,-3,2,-3,-5,2
6033158887,-2,2,-3,-12,-3,-1,1,-3
6033158887,4,-3,-8,10,-2,-3,0,0
6033165677,1,0,-3,-8,-1,-1,-7,-3
6033165677,-2,6,-30,2,1,1,4,1
6033173201,-5,2,57,7,2,2,-2,-3
6033173201,-7,-14,-13,-2,-6,-4,-5,-2
6033188135,8,7,-2,-4,4,0,4,0
6033188135,-4,-7,-14,0,-1,-1,-2,-3
6033195664,-1,-5,-24,-2,-4,0,-7,-2
6033195664,3,4,4,-3,-3,-5,1,0
6033204602,6,8,-26,0,0,1,0,2
6033204602,-1,-4,38,2,-6,-4,-2,-1
6033218897,-3,5,-30,-2,3,0,1,0
6033218897,3,-7,10,-1,0,-1,10,1
6033225732,2,0,-37,-13,0,1,-10,2
6033225732,-5,5,33,12,-2,1,-3,0
6033241378,2,-4,16,-3,0,2,2,5
6033241378,0,3,18,3,-3,-3,4,-1
6033248234,3,-8,-59,5,1,0,0,-1
6033248234,-1,6,9,-1,-2,-4,-2,1
6033255658,-4,-9,3,0,-5,-3,-3,-5
6033255658,4,-5,-72,-12,14,7,3,2
6033264573,-7,-6,23,9,-4,-5,1,1
6033264573,6,4,5,-4,-4,-2,-4,-1
6033278858,0,-3,6,2,-1,-1,2,-3
6033278858,1,5,2,8,0,2,-2,0
6033285663,-5,-4,7,-11,-4,-3,0,-3
6033285663,-3,-3,-12,12,3,-2,-1,-4
6033301253,4,0,-13,-11,-4,1,-1,0
6033301253,2,5,15,-9,-6,-3,-3,0
6033308005,-18,-11,5,1,-2,-2,-1,-7
6033308005,2,-3,0,3,3,6,1,5
6033315624,-3,-2,4,-3,-1,-2,-7,0
6033315624,0,2,43,8,-5,-7,1,-2
6033332009,2,3,-50,-9,-5,-1,-2,0
6033332009,2,3,56,-2,-4,-1,0,-3
6033338182,-7,-13,-5,9,-1,-2,0,-3
6033338182,7,10,-18,-5,5,1,-2,0
6033347014,-2,-3,54,7,3,1,3,-1
6033347014,-16,-10,-8,-6,-5,-6,-3,-5
6033361295,4,-1,-41,-22,-10,-6,-4,2
6033361295,2,2,12,19,3,1,-3,-2
6033368154,3,4,-7,1,1,1,2,-1
6033368154,5,0,-4,-5,4,0,-2,0
6033384437,-4,6,21,9,2,0,1,1
6033384437,-8,-11,-14,-14,-10,-6,-6,-4
6033385959,6,9,29,-2,-1,-1,1,3
6033385959,0,-5,-8,-9,-5,-1,2,-2
6033398149,2,6,-11,4,-2,-1,1,-3
6033398149,-2,2,6,4,7,3,1,1
6033407089,2,-4,-14,1,6,2,0,0
6033407089,1,-2,-16,-5,0,-4,6,0
6033421335,-5,-3,-12,-8,-2,3,-16,-4
6033421335,-4,0,8,-5,-8,-7,0,-1
6033428157,-6,0,29,4,-3,-2,0,0
6033428157,15,9,-6,-2,1,6,2,3
6033444552,-7,-5,-10,-1,7,0,4,0
6033444552,2,-6,26,15,-5,-2,-1,-3
6033446026,6,4,20,-10,-5,-3,-5,-1
6033446026,-10,-3,15,0,-5,-4,-5,-4
6033458137,-4,-1,-53,-12,3,0,5,2
6033458137,-6,-2,10,4,2,5,1,-1
6033467021,1,-14,-70,-12,-1,-1,-2,2
6033467021,3,6,16,11,-2,0,4,-1
6033481370,3,-3,14,-5,-2,-1,0,0
6033481370,-1,-2,-5,-6,-1,-4,-3,0
6033488172,1,4,0,1,-6,0,1,-3
6033488172,-2,-4,1,3,7,1,-4,1
6033504490,3,2,-22,-3,-5,-4,-2,2
6033504490,-2,1,-12,-9,-7,-2,0,-4
6033505977,-3,4,15,1,6,3,1,-2
6033505977,-11,-11,-13,-1,-4,-2,-5,-2
6033518140,-2,1,4,-7,-1,-1,1,-3
6033518140,4,-1,-26,-7,-4,-2,-2,1
6033527002,1,1,12,-3,-3,-5,-2,-1
6033527002,-6,-9,-18,-1,2,2,-11,-4
6033541384,3,2,1,8,2,1,1,-1
6033541384,-8,-6,19,-3,0,0,-3,0
6033548142,-13,-9,-18,-6,-4,-4,-4,-5
6033548142,8,5,0,-5,1,2,7,2
6033563868,-2,2,17,3,-5,-3,-4,-1
6033563868,5,-1,-10,-1,2,0,-1,0
6033570660,-5,1,11,11,6,2,2,-1
6033570660,2,1,5,-3,-2,-3,-2,0
6033578154,-3,-4,12,0,-1,4,3,-1
6033578154,-1,0,-7,-1,5,1,2,-1
6033587047,5,7,13,5,-3,-1,-2,1
6033587047,-11,-8,43,-6,-15,-7,-6,-8
6033601286,7,1,-34,-3,12,-2,-2,2
6033601286,-1,-2,2,4,0,1,4,4
6033608183,-6,1,18,1,-1,0,-3,-2
6033608183,4,2,-8,3,2,3,3,1
6033623884,1,-3,8,-9,-7,-5,-1,-2
6033623884,-2,3,-4,-3,-5,-4,-6,-5
6033630566,5,2,-5,4,2,-2,-2,2
6033630566,1,-2,-12,-3,-3,-2,-2,2
6033638072,-2,-1,-5,-1,-5,0,-1,-2
6033638072,-8,-5,2,-7,3,-1,-1,-7
6033647052,2,-4,1,5,-2,1,-2,-3
6033647052,0,1,31,-5,-3,-4,-3,-2
6033661361,4,-1,-7,3,3,3,2,0
6033661361,-11,3,3,6,-2,0,2,-2
6033668189,2,1,-6,-1,-4,-5,-5,-4
6033668189,1,-3,8,7,3,-1,-2,-3
6033683912,2,-6,-23,-8,-5,-1,-1,0
6033683912,0,-4,-13,4,2,0,-1,-4
6033690658,-3,-5,-7,4,2,0,-1,1
6033690658,3,4,-10,9,-2,-3,0,2
6033707076,-4,4,-9,-13,-3,-3,-3,-3
6033707076,-3,-12,5,-7,-5,-5,-5,-5
6033708519,-7,-6,5,-6,-7,-2,1,-1
6033708519,-3,-1,-36,-9,9,3,3,-2
6033721218,2,1,23,9,-2,-2,-1,2
6033721218,0,0,6,2,1,0,0,-1
6033728135,8,-1,-35,-4,0,0,0,-1
6033728135,-4,-7,3,-6,-9,-3,-3,-2
6033743739,-2,7,44,17,4,0,1,0
6033743739,-5,-9,-5,-11,-4,-2,-2,0
6033750690,-1,0,-1,0,3,0,0,-1
6033750690,-4,-6,-23,-2,4,4,1,-3
6033766974,-1,3,-7,-3,-2,-2,9,0
6033766974,-1,6,15,1,-3,-2,-9,1
6033768527,0,-3,-3,-1,-2,-2,1,1
6033768527,-2,4,11,-6,-3,-3,-1,-4
6033781374,-7,-8,-31,-8,-5,0,-1,2
6033781374,4,-2,-6,6,2,0,-2,-1
6033788151,-4,-2,30,3,-3,-1,1,-1
6033788151,0,6,31,4,3,0,-2,-1
6033803869,0,-3,4,14,-6,-4,-5,-4
6033803869,8,7,-17,-22,4,3,2,3
6033810522,-7,-6,-20,-14,-9,-4,-4,-3
6033810522,-9,-8,-25,12,3,-2,1,-3
6033826959,3,1,29,2,0,2,-2,0
6033826959,4,-4,-29,-2,3,0,2,0
6033828495,2,3,19,-2,-8,-2,0,-1
6033828495,1,0,-9,-4,-5,-2,-2,1
6033841941,-5,-6,-16,-2,12,3,-1,-3
6033841941,1,0,8,-3,-5,1,2,1
6033848143,8,1,-7,-6,-3,-4,-4,-1
6033848143,-4,6,-10,0,4,1,4,5
6033863876,-6,-2,1,0,-1,-2,-4,-3
6033863876,-2,-2,12,0,-7,-5,-2,-2
6033870684,5,-1,-18,1,5,2,-2,-1
6033870684,-4,-4,-25,-7,1,1,-2,0
6033886962,5,0,28,3,-3,-4,-1,0
6033886962,-4,3,33,13,-3,-3,-3,-3
6033888491,-5,-15,-67,-12,-7,-3,-2,-1
6033888491,4,2,10,-14,-2,-1,-1,0
6033901374,6,5,29,-9,0,1,-3,1
6033901374,-5,-7,-18,7,-4,-2,-2,0
6033907999,-6,5,38,17,10,4,1,-2
6033907999,-4,-7,-31,-14,-7,-3,-3,-3
6033924476,-1,-11,7,-1,-6,-6,-5,-5
6033924476,3,3,17,6,2,1,2,0
6033930637,-1,1,-20,-3,-2,-1,0,1
6033930637,2,4,-8,5,2,1,1,2
6033946994,2,3,-1,-7,-7,-5,-1,0
6033946994,-1,-4,-24,6,1,0,1,0
6033948456,-3,-2,-3,-11,2,1,3,0
6033948456,-7,-4,40,5,-8,-6,-6,-4
6033961254,2,1,-8,5,2,1,0,2
6033961254,-1,4,-18,-5,-2,0,1,-3
6033968140,-4,-2,28,-3,1,1,1,1
6033968140,7,-6,-17,-2,-5,-4,-4,0
6033983838,-8,1,-6,-2,-3,-1,0,0
6033983838,9,2,0,7,4,0,0,-2
6033990622,-11,-3,21,7,3,1,0,-4
6033990622,-1,-3,10,0,0,-1,-5,-2
6034007011,-2,-4,-25,-11,-7,-3,-1,-4
6034007011,-2,6,1,-3,2,1,-1,1
6034008476,1,-2,-12,3,4,-1,0,-1
6034008476,-6,-2,-6,11,-2,1,-4,-1
6034021264,-3,-2,43,-8,0,3,5,1
6034021264,1,-2,-19,-2,-5,-5,-3,-1
6034028168,13,6,14,7,0,0,-1,2
6034028168,-5,2,-11,-1,0,-1,0,-1
6034043795,-16,-7,-18,-3,-3,-3,-4,-3
6034043795,-2,-3,-21,-6,0,2,1,-3
6034050669,-4,4,-1,-1,0,-1,-3,-2
6034050669,5,-11,-1,1,0,0,0,0
6034066950,4,2,-1,4,-4,-3,-4,-1
6034066950,-2,0,22,1,0,0,0,2
6034068494,-1,-2,-8,1,0,0,-1,-2
6034068494,4,10,13,2,1,-1,2,1
6034081216,-7,-4,-63,-11,-2,0,0,-2
6034081216,-4,-9,11,-6,-6,-3,-4,-4
6034088131,-4,-2,-4,-1,-6,-4,1,-3
6034088131,2,-6,7,-10,1,0,-4,-4
6034103837,0,-2,27,13,3,-1,0,0
6034103837,0,7,-8,-7,5,1,1,3
6034110562,4,0,8,4,0,1,0,1
6034110562,2,-1,-36,-6,4,0,5,-1
6034126934,-9,0,38,-5,-9,-6,-5,-6
6034126934,4,-3,-26,0,-4,-1,-1,-1
6034128445,1,0,53,3,-1,-1,-2,0
6034128445,-1,-4,-49,-9,-2,-1,2,2
6034141298,1,2,16,22,8,2,-1,0
6034141298,-9,-8,2,-4,-2,-1,2,-4
6034148080,-5,-3,-4,1,-3,-3,-3,-2
6034148080,8,9,13,-1,-2,-1,0,0
6034163840,-3,-10,-13,-13,-5,-4,-1,-1
6034163840,-2,0,17,-2,-3,-3,-1,-1
6034170647,-2,-2,1,2,2,-1,0,-1
6034170647,0,1,11,3,4,0,1,-1
6034187096,12,8,13,2,-4,-1,-2,-2
6034187096,-6,-1,-9,-2,-1,-3,0,3
6034188515,0,-11,-36,-12,-8,-2,-2,-2
6034188515,-3,-5,11,5,-3,-2,-1,-1
6034200602,-7,4,28,-10,2,-1,-5,-4
6034200602,-4,-8,-43,3,-1,2,1,-3
6034209512,4,5,-4,-2,9,2,0,3
6034209512,0,-1,-12,13,-3,-1,-2,-1
6034224508,6,1,-7,-13,-3,0,-1,2
6034224508,10,5,4,-12,-9,-2,-3,0
6034230659,-12,-8,-2,-2,-2,-5,-6,-3
6034230659,-3,0,9,2,0,0,-1,-3
6034246206,1,0,-18,7,4,3,3,0
6034246206,-1,-2,-1,0,-1,-1,-1,-2
6034247044,0,0,-7,-6,-4,-1,2,-2
6034247044,-3,-1,3,0,0,-2,-2,-1
6034268632,-1,-2,2,1,-3,-1,1,-3
6034268632,2,3,-3,-7,5,0,-1,1
6034269516,0,-5,35,-7,-5,-4,-1,0
6034269516,-2,7,14,4,4,4,0,0
6034284503,7,-3,-27,0,0,-2,-1,0
6034284503,-8,-2,-9,4,-4,-4,-2,-2
6034290590,-2,6,-12,-3,6,2,1,0
6034290590,-7,-9,15,-7,0,-3,-3,-1
6034306687,4,1,-28,-1,2,2,2,3
6034306687,-1,1,28,3,0,-4,-6,-2
6034313118,-1,-1,-13,1,0,1,-1,-2
6034313118,-6,0,27,0,-8,-4,0,-5
6034321994,0,0,-12,2,2,0,-1,1
6034321994,1,0,-3,-2,-3,-2,-2,-2
6034328169,-7,5,45,-3,-4,0,-2,-3
6034328169,8,-4,-23,0,-2,-2,-1,1
