timestamp,emg1,emg2,emg3,emg4,emg5,emg6,emg7,emg8
6557547226,1,8,10,-5,-4,0,-2,-2
6557547226,0,-4,-2,2,3,0,-2,-3
6557548233,0,-4,5,3,9,4,2,-1
6557548233,2,9,52,11,-5,-4,-3,-2
6557548941,1,-7,-51,-25,-1,-1,0,0
6557548941,-1,-9,16,-7,-9,-5,-6,-2
6557551871,-3,7,1,-3,0,1,-1,-2
6557551871,-7,-1,-7,5,0,-1,0,-3
6557559712,-1,-12,11,8,-4,-2,-2,-1
6557559712,0,1,6,-2,-4,-1,0,-2
6557567551,0,3,-9,-3,-7,-5,4,0
6557567551,2,-4,-14,-9,-2,3,-11,-3
6557574644,0,-1,20,4,-1,-1,1,-1
6557574644,-6,5,-13,6,2,0,1,2
6557588870,1,0,10,7,0,-7,8,-2
6557588870,3,-7,-7,-8,-5,2,-11,0
6557598310,-7,1,-15,1,4,0,1,-2
6557598310,8,5,17,3,1,-1,0,0
6557603955,-2,-6,-7,-8,-7,-1,-3,-1
6557603955,-4,4,13,1,0,-4,3,-1
6557619673,2,2,10,1,0,3,-1,0
6557619673,-4,-4,-8,5,-1,-1,1,-1
6557627596,-1,-4,11,-1,2,0,-5,-1
6557627596,7,3,-20,-3,3,0,4,1
6557666906,5,4,48,3,-1,-1,-1,3
6557666906,-3,-10,13,-10,-1,-3,-3,-5
6557667739,2,-1,-68,-7,-2,-8,0,-3
6557667739,-6,3,17,2,-1,8,-1,-2
6557668659,1,-12,-85,4,4,4,3,0
6557668659,8,3,47,5,-2,-2,2,1
6557671232,-7,9,24,-11,0,3,-5,1
6557671232,12,-2,-6,-1,0,-3,2,3
6557680142,-9,-8,-9,-7,-6,-8,-5,-4
6557680142,-14,3,4,4,1,-2,-2,-3
6557686158,4,-4,0,9,14,19,13,1
6557686158,-1,-3,4,-1,-6,-15,-9,-2
6557702626,5,13,30,-7,-4,0,-2,4
6557702626,3,-6,-31,2,6,4,9,-3
6557708701,-8,-8,23,1,-6,-25,-5,-3
6557708701,-3,1,-6,-2,4,26,2,-2
6557717640,13,4,-13,1,-1,-6,-2,3
6557717640,-7,-2,-23,-7,-7,0,-7,-2
6557723714,-7,-2,12,5,-2,-6,-8,-2
6557723714,7,4,20,-5,-1,-8,-3,-1
6557740102,-4,-5,-66,-2,-2,-3,-4,-2
6557740102,6,6,56,-6,-4,3,0,3
6557746237,-3,-1,43,8,3,4,2,1
6557746237,-11,1,-51,-5,3,-4,-1,-3
6557762652,-8,-5,21,-7,0,5,-2,-8
6557762652,-6,0,2,-9,-7,-3,0,0
6557768735,13,11,1,17,6,-2,-2,-2
6557768735,-1,2,-4,2,-4,-5,0,1
6557777608,3,4,0,1,5,1,5,0
6557777608,-3,0,-21,7,2,-1,0,-2
6557791182,9,24,-5,-16,-6,-4,-3,1
6557791182,-14,-16,8,5,-1,3,3,-5
6557800115,20,10,16,-6,1,2,2,5
6557800115,-9,-28,-12,-8,-4,-6,-8,0
6557806233,-18,29,8,0,-6,5,-1,-5
6557806233,-6,-12,4,-3,3,-7,-1,1
6557822614,-5,4,22,-1,-11,-2,-3,-3
6557822614,35,69,13,7,6,0,3,10
6557828710,-13,-105,-42,3,13,2,3,-3
6557828710,3,8,-9,-13,-18,-11,-10,-5
6557837859,-17,-23,17,4,-2,2,-3,-7
6557837859,-13,8,-17,7,14,-8,19,9
6557851086,19,25,6,9,14,40,-2,-6
6557851086,-9,-8,12,-12,-20,-25,-9,5
6557860114,6,-7,15,21,0,5,4,-4
6557860114,-4,-4,4,8,-4,5,-3,-6
6557866209,3,-2,-6,-29,-1,-10,4,4
6557866209,7,-2,-3,11,-13,-2,-2,-2
6557882620,-6,34,14,-2,-7,-13,-10,-4
6557882620,-15,-34,-42,-13,14,-2,-5,-8
6557888604,8,16,10,12,-3,0,0,9
6557888604,3,16,3,-12,-18,-6,-7,-7
6557897578,7,-11,-5,3,2,0,7,6
6557897578,-4,-1,9,9,9,10,-1,-3
6557911180,-24,-11,-9,9,-12,-15,-6,-6
6557911180,7,-11,6,-7,2,-1,3,0
6557920073,-6,11,9,-32,-10,-4,-5,-3
6557920073,14,5,0,1,-5,2,-1,-2
6557926004,-1,6,-16,-31,-41,-24,-11,-1
6557926004,-6,-6,13,36,24,14,8,-2
6557942609,-2,-11,3,-4,14,6,6,2
6557942609,5,6,-6,-7,-7,4,-1,3
6557948617,-11,-10,14,33,0,-18,-9,-4
6557948617,1,-1,-16,-52,-33,0,-5,-3
6557957647,-3,-14,9,15,9,16,6,0
6557957647,-10,-14,5,22,28,8,2,-1
6557971194,10,-2,-16,-25,9,11,8,6
6557971194,3,-2,-2,12,14,0,3,5
6557980104,1,4,-25,-24,-21,-16,-12,-4
6557980104,-3,-5,-4,-2,-25,-12,-6,-2
6557986255,-14,-20,23,16,11,15,10,-7
6557986255,6,11,-4,3,9,2,7,3
6558002580,-5,-5,-8,7,-5,-7,0,1
6558002580,-2,-11,11,6,-4,3,3,-3
6558008734,-7,-10,-14,-28,-3,10,-9,-3
6558008734,0,10,8,3,9,9,7,4
6558017595,-12,-16,4,8,2,-6,-1,-4
6558017595,-2,-9,-4,-13,-4,-3,3,-1
6558031247,10,4,-3,-13,-2,-1,4,0
6558031247,-19,-4,0,7,1,-13,-8,-4
6558040074,8,3,2,12,13,21,5,-2
6558040074,-2,-2,-7,-12,-7,-10,-14,-3
6558046195,3,11,0,4,-5,-3,1,0
6558046195,1,-10,0,9,10,0,2,-3
6558062576,-8,5,6,0,-1,-4,-4,-3
6558062576,8,8,-4,-8,-6,5,-4,0
6558068749,2,5,8,8,1,-8,-16,0
6558068749,1,2,6,6,4,-2,-1,2
6558077582,-4,1,-5,-5,1,4,3,0
6558077582,-7,-6,-7,-6,-9,-10,1,0
6558091152,5,-5,-3,-1,0,-6,-2,-2
6558091152,1,-9,-2,-1,4,0,22,3
6558100099,-6,-5,-5,0,-2,-3,-7,1
6558100099,-4,1,1,1,-2,-3,6,-2
6558106179,15,1,-2,-1,-4,-1,6,0
6558106179,-2,8,-3,-2,-1,4,-9,-3
6558122659,-7,-5,3,1,3,-3,3,-2
6558122659,14,4,-1,-4,-2,-2,4,5
6558128717,-12,1,0,0,0,4,-6,-3
6558128717,-9,-3,-4,-2,-2,1,-5,-8
6558137553,16,29,4,3,2,-4,6,10
6558137553,-14,-17,4,0,-5,3,-18,-5
6558151228,23,88,4,1,0,-7,5,-2
6558151228,-41,-102,-34,-1,-2,-5,-9,-12
6558160112,-19,41,-1,-18,-17,-8,-9,-3
6558160112,-1,30,-6,8,18,7,6,-2
6558166164,13,8,-25,-10,4,2,7,3
6558166164,13,-56,28,18,7,12,-1,0
6558182605,12,3,9,14,-13,-10,-7,-5
6558182605,-25,9,-39,-36,0,-6,-5,-2
6558188673,23,86,77,73,-3,1,3,9
6558188673,-2,-7,-21,-53,14,-2,-4,0
6558197564,-11,12,18,-12,-4,11,5,-2
6558197564,6,-92,-25,9,6,-6,-22,-4
6558211218,-5,62,13,-7,3,3,-1,-5
6558211218,-24,-38,16,6,-29,-14,-16,-9
6558220105,7,-29,-5,-2,2,-8,3,5
6558220105,-9,-11,-1,-3,-11,0,0,-7
6558226216,8,-38,-11,1,4,-5,0,7
6558226216,17,71,7,4,1,12,0,5
6558242599,-16,-19,-29,-2,10,-2,3,-4
6558242599,1,8,2,6,-6,1,-1,-2
6558248660,-13,-23,-24,-26,-18,-9,-11,-7
6558248660,17,62,15,7,0,2,6,2
6558257605,-13,-24,-19,-14,22,6,-1,-6
6558257605,12,21,14,11,-13,-7,-7,1
6558271188,-25,-60,8,32,1,-13,-1,-4
6558271188,24,1,-28,-48,-5,-1,-1,5
6558280100,-3,-11,10,13,-1,9,-4,-2
6558280100,13,4,22,16,12,8,13,5
6558286219,-18,-46,-22,-33,-14,0,3,1
6558286219,13,12,5,25,-5,3,-6,-1
6558301233,11,-16,-10,31,47,-17,-3,-3
6558301233,-6,12,21,10,-6,13,5,-1
6558308719,10,-4,-23,-25,20,2,6,5
6558308719,-4,18,-8,-30,-25,-14,-1,0
6558317596,1,-5,0,0,-9,-4,-3,3
6558317596,-11,-18,-6,-16,-7,-11,-4,-8
6558331177,-9,-23,-4,12,13,9,-1,-2
6558331177,4,16,-8,4,3,0,7,4
6558340083,-1,1,-14,-21,-11,7,-2,-2
6558340083,-3,-2,12,8,-5,7,7,0
6558346186,-6,-43,-6,-7,-12,3,-3,-2
6558346186,-13,-5,-4,5,12,-2,3,-4
6558361152,15,3,26,11,-13,-7,-1,2
6558361152,11,18,-1,15,25,6,4,7
6558368651,-9,4,4,-10,8,3,1,-6
6558368651,-12,-40,5,8,5,3,4,4
6558377640,9,-1,0,11,-4,5,0,3
6558377640,4,20,9,-6,-4,-4,1,2
6558391135,-14,-15,-2,-15,-10,3,-3,-4
6558391135,-1,18,6,23,6,-10,-10,-6
6558400152,0,16,-3,-16,-18,-4,1,-1
6558400152,-13,-14,-8,-14,-6,-9,-9,-5
6558406188,11,-1,-1,16,19,11,10,5
6558406188,9,11,2,-2,-4,1,16,4
6558421154,-15,-9,-4,-1,3,11,5,-1
6558421154,2,4,-9,-14,-6,-5,-11,1
6558428664,-4,2,0,-3,-11,-9,6,-9
6558428664,0,11,1,8,8,2,-25,3
6558437570,11,-5,-1,-10,-8,-12,6,-2
6558437570,-2,4,2,0,2,2,-1,0
6558451224,-2,-3,-3,-7,-10,-3,17,6
6558451224,-6,-5,0,4,2,4,7,-3
6558460080,2,-17,-7,2,-5,0,-6,-2
6558460080,-20,-2,1,-4,-2,-8,2,-4
6558466168,15,3,1,-1,-4,-3,-17,-2
6558466168,-7,-2,-1,-1,-1,-7,-4,0
6558481175,3,2,-1,-2,1,9,6,3
6558481175,17,6,-3,1,-3,-5,1,-5
6558488687,-6,-16,-3,-11,-7,-7,-22,3
6558488687,-17,34,4,10,4,1,31,0
6558497613,8,-23,-6,-2,-1,0,-5,-1
6558497613,-13,62,13,-4,-4,-3,-9,-5
6558511162,0,-71,-27,0,-5,-9,-4,-9
6558511162,36,74,16,3,2,6,-4,5
6558520084,-34,86,3,-22,-8,-3,-10,-1
6558520084,4,34,-2,3,-3,-1,6,-1
6558526194,-8,-17,-4,15,5,4,-8,-7
6558526194,29,-27,-8,-1,1,3,-4,3
6558541171,22,-20,28,13,-4,8,5,4
6558541171,-27,8,-28,-25,3,-4,-3,-2
6558548716,1,69,32,-11,-11,-9,-5,1
6558548716,-4,-55,-52,-20,-5,-4,-11,-8
6558557603,9,4,13,6,6,-5,-3,-2
6558557603,-3,-70,-10,2,-4,2,5,7
6558571217,-1,-47,24,21,4,5,1,4
6558571217,-1,9,8,-9,-10,-4,-18,-9
6558586891,8,22,12,10,-6,-7,-5,-6
6558586891,17,53,3,-12,-3,2,0,2
6558587555,-23,-12,6,32,14,9,9,-3
6558587555,-23,-13,-24,-25,-8,-12,-13,-8
6558602603,18,-21,-27,-23,-3,2,5,-1
6558602603,-5,11,12,18,-1,3,-14,5
6558617533,6,23,-7,1,8,1,14,4
6558617533,-6,18,16,-3,-12,-2,-6,-5
6558619058,-1,13,-6,7,19,9,6,6
6558619058,16,-16,-15,-6,9,-5,19,0
6558640079,-7,19,1,-14,-15,-10,-31,-10
6558640079,-13,-40,5,13,18,4,0,0
6558641592,14,-14,-7,7,-22,-7,-3,-1
6558641592,9,-23,6,-14,8,2,9,4
6558654364,-13,-18,-3,-8,-5,13,4,-2
6558654364,-6,-1,6,8,3,-4,1,1
6558661261,-10,-21,-22,-7,-25,-7,-10,-1
6558661261,-6,-24,0,-3,19,19,5,-4
6558677567,7,14,0,11,-13,-12,0,-1
6558677567,7,10,-7,11,12,14,8,6
6558679050,-6,18,8,-3,5,-10,-3,-3
6558679050,-9,-28,11,-5,-22,-14,-12,-9
6558691112,8,24,1,22,3,-1,0,2
6558691112,-12,-16,-14,-56,-9,-11,-5,-9
6558700029,-19,-1,-3,5,-8,5,-1,-2
6558700029,19,26,-2,-4,-13,-15,-4,3
6558714370,-4,0,-13,-6,7,1,-1,-2
6558714370,5,8,1,30,4,3,5,-1
6558721107,-24,-26,-9,-24,6,5,0,-5
6558721107,-5,-9,-13,-6,-3,4,0,2
6558737488,8,-10,-13,-2,-6,-7,1,1
6558737488,5,10,-4,3,6,11,5,6
6558739053,-8,-5,-12,-16,8,-2,-5,-4
6558739053,18,4,7,50,-3,-6,-5,3
6558760036,-5,5,-15,-43,2,-2,0,-1
6558760036,3,1,7,7,-2,4,6,3
6558761557,-3,-7,-6,-6,-8,-18,1,-5
6558761557,-8,-29,-7,-2,-1,-1,0,-2
6558773668,7,19,6,1,3,-11,-1,-5
6558773668,-10,-15,-2,-2,-5,14,-23,1
6558782595,-4,-8,11,10,-3,-5,-2,-3
6558782595,-5,-8,-3,-10,-12,-10,-7,-5
6558797518,2,-3,-5,-9,2,7,7,3
6558797518,9,6,11,5,-2,-11,9,6
6558799009,5,4,-5,8,9,3,-21,-2
6558799009,-8,-3,7,2,2,2,8,-8
6558820065,11,0,-2,-12,-6,-9,-5,2
6558820065,-12,2,0,6,-2,1,-2,-3
6558821549,8,3,6,1,1,0,5,2
6558821549,0,-18,-5,-11,-1,2,3,0
6558833670,2,0,-2,0,-1,-4,2,2
6558833670,1,-6,2,3,-3,-8,-13,-5
6558842562,-25,-12,-2,1,4,5,26,-3
6558842562,-4,-12,1,0,1,0,-3,3
6558857544,24,13,-2,-1,-1,2,-1,4
6558857544,-5,9,4,2,-3,-7,-1,-2
6558859034,-5,-18,-6,1,-1,1,-12,-6
6558859034,15,39,14,3,-2,-3,-6,1
6558871119,-44,-46,-18,-16,-8,-4,-1,-11
6558871119,8,27,4,-2,-3,1,5,-3
6558880056,-24,-46,-19,-6,-1,-3,-5,-7
6558880056,15,79,20,2,-5,0,5,2
6558894355,-14,-53,-14,47,26,10,-2,-7
6558894355,10,11,-10,-26,-6,-1,4,0
6558901106,28,16,9,16,-9,-9,-4,8
6558901106,7,-42,10,-9,1,-2,-4,-1
6558917437,-40,-6,-5,-31,-10,-6,-10,-4
6558917437,6,60,-5,5,-2,-1,3,-1
6558919042,-7,-49,-12,0,20,10,5,3
6558919042,5,26,9,-11,-16,-7,16,2
6558931027,3,-34,-13,-13,-9,-2,-23,-3
6558931027,1,22,30,40,7,-1,0,-9
6558940049,7,6,-7,-27,3,2,-2,-1
6558940049,-5,56,7,28,1,-2,-3,-1
6558954403,31,5,-6,-23,-6,2,9,8
6558954403,-17,-21,-3,-13,-9,-3,3,6
6558961140,-8,55,23,20,9,5,-2,-5
6558961140,-15,-94,-25,-7,-3,0,-18,3
6558977539,-3,67,6,-9,-5,-3,-7,-6
6558977539,4,-28,-1,0,-11,-15,-28,-8
6558979065,11,58,15,18,15,-5,16,6
6558979065,-6,-1,-16,-14,-23,11,-3,-1
6558991163,16,22,18,7,1,9,17,6
6558991163,-5,-21,0,-16,8,11,5,2
6559000043,-5,-52,-3,6,-11,-15,-11,-6
6559000043,-3,-18,-10,33,-8,1,10,-5
6559014365,-6,-18,-4,-29,26,0,2,2
6559014365,-13,-35,5,6,7,-9,4,-1
6559021109,3,10,6,17,7,20,12,4
6559021109,9,-31,-22,-48,-9,6,4,2
6559036920,4,28,12,47,-14,-15,-11,-5
6559036920,-14,-21,11,66,2,-3,4,-4
6559043642,17,23,-34,-58,17,-7,-8,3
6559043642,-29,-20,6,26,6,-1,-7,-8
6559051109,-7,-6,-9,-14,7,-5,-2,-3
6559051109,0,-12,-12,-15,-18,-2,-1,-4
6559060040,4,-15,13,25,-27,-6,-6,-1
6559060040,-2,9,-21,-24,17,8,9,3
6559074271,-2,-6,9,28,-3,-2,2,-1
6559074271,-10,-10,-4,-34,-1,-2,-2,-7
6559081208,-4,12,8,-8,-20,-5,-8,0
6559081208,0,-3,-14,-20,18,6,4,2
6559096832,2,-3,4,10,-6,6,-1,2
6559096832,23,31,-3,8,3,5,7,7
6559103723,-22,-14,-5,-25,-10,-13,-15,-12
6559103723,-1,-1,12,20,3,-6,1,-3
6559111195,15,22,-1,3,-5,-2,-1,4
6559111195,-3,-7,-5,-9,1,2,4,0
6559120042,13,8,-6,2,1,-5,0,6
6559120042,-10,-4,10,4,4,-10,5,-5
6559133691,-7,-15,3,-7,-2,5,-2,-2
6559133691,0,-8,-7,-18,-1,13,15,-2
6559142526,-5,-1,7,10,-2,8,-8,-1
6559142526,9,14,2,10,8,-9,4,-1
6559156887,5,7,-3,-15,-3,8,12,-2
6559156887,-13,-13,-7,-3,-2,-21,-21,1
6559163705,-6,-3,2,1,-2,8,24,-4
6559163705,-11,-5,-7,-6,-5,-6,-16,-8
6559180075,-6,1,0,1,4,-1,14,2
6559180075,14,-16,-1,-1,-3,3,-16,-4
6559181527,0,0,-2,-2,-3,-6,-3,4
6559181527,1,-6,0,-7,1,4,-10,-3
6559193646,-5,-8,3,0,-4,0,2,-2
6559193646,4,11,2,2,3,-8,-4,3
6559202582,0,5,-6,-11,-4,7,2,2
6559202582,4,38,18,19,11,1,2,2
6559217735,-6,-73,-30,-13,-13,-6,-11,-6
6559217735,38,41,9,-6,-6,-6,4,10
6559225020,-88,-95,-20,3,1,1,-7,-22
6559225020,9,4,-6,-16,-6,-5,-4,3
6559240040,-2,31,-3,-1,5,3,8,0
6559240040,24,-3,18,28,2,-2,9,11
6559241507,30,55,-17,-16,8,3,-4,1
6559241507,-13,-61,0,5,-11,-4,-4,-6
6559254331,-2,-71,5,-40,-8,-12,-15,-10
6559254331,-11,115,-28,-11,-5,6,8,1
6559261180,15,-48,-8,-33,0,-2,3,4
6559261180,-43,-71,4,20,-9,-3,-12,-14
6559276832,27,120,50,9,27,0,-6,4
6559276832,-14,-57,-24,-24,-3,2,3,-6
6559283664,8,-19,6,22,-8,-5,-4,6
6559283664,24,30,-3,-2,-2,-4,-4,2
6559300051,-14,4,16,28,-1,0,-11,-1
6559300051,2,-50,-7,-21,-4,-1,-4,-7
6559301562,-22,-8,-12,-10,6,-1,1,-4
6559301562,26,44,15,6,2,-4,-2,4
6559314320,-11,38,-5,9,-16,5,6,3
6559314320,-18,1,2,0,6,1,-4,-1
6559321154,8,27,12,19,6,3,-10,4
6559321154,7,26,-11,-20,-5,-7,3,-2
6559336747,-3,23,-5,-12,-5,1,8,4
6559336747,1,-1,-17,-13,2,-8,-16,-8
6559343661,10,18,7,-8,-2,0,-5,-3
6559343661,2,-18,-2,12,20,9,-4,3
6559360056,-15,-39,-7,23,-12,-6,-4,-10
6559360056,-6,-45,11,17,-4,-3,8,1
6559361523,12,13,20,-8,11,-3,5,2
6559361523,-3,-6,-9,-13,10,6,4,1
6559373684,8,-33,-10,19,12,3,5,-1
6559373684,-2,17,25,2,-13,13,1,-3
6559382490,-5,-4,-10,-18,-2,5,3,-3
6559382490,-4,-3,11,16,1,-8,3,3
6559396765,0,9,-7,-15,0,10,0,1
6559396765,-3,14,8,7,4,-20,-5,-2
6559403665,17,44,14,18,-5,-3,0,3
6559403665,-7,0,7,7,-20,-15,-13,-12
6559420049,-8,-10,-7,8,13,13,9,6
6559420049,-4,10,-4,-3,-9,-5,-5,-5
6559421543,9,24,20,28,-7,-4,4,2
6559421543,-10,12,-4,-21,-7,-5,-9,-7
6559433670,10,10,0,2,5,-6,-1,0
6559433670,-20,-37,-5,-11,7,4,1,-3
6559442547,2,-2,0,8,-4,3,1,-3
6559442547,0,8,2,-2,6,6,6,2
6559456887,-1,0,12,-22,-11,-8,-9,-2
6559456887,-20,-57,-7,-12,-10,6,4,-6
6559463554,-5,-1,-3,9,-2,-15,-6,-1
6559463554,6,19,-13,-8,-1,6,7,4
6559480026,1,-1,-5,-9,-1,2,-11,-2
6559480026,-1,12,5,13,4,-14,-6,-3
6559481519,1,-3,-3,-5,-5,6,0,1
6559481519,-8,-14,-11,-14,-7,1,-5,-5
6559493732,2,-8,-3,9,4,-1,14,6
6559493732,4,24,-2,2,8,4,5,-1
6559502516,2,3,-6,-9,-3,1,-1,-1
6559502516,7,-9,1,3,-2,-2,10,4
6559516829,-4,-3,-1,-1,-6,-1,-20,-7
6559516829,-6,-1,-3,3,1,-4,4,0
6559523648,-3,-20,-19,-14,-8,5,-18,0
6559523648,-7,-11,-4,3,4,2,9,1
6559539922,3,-2,-3,-3,-3,-6,-1,-4
6559539922,5,-7,-4,-2,3,4,-7,4
6559541476,-11,-7,2,4,-3,-5,-5,-5
6559541476,11,1,-6,-3,1,-10,-8,-1
6559553685,-3,1,-7,-11,-7,9,1,1
6559553685,-3,-4,0,1,-2,-9,6,-1
6559562550,-1,11,-1,3,3,4,2,-4
6559562550,2,4,-1,0,0,6,1,2
6559576123,-7,-2,3,6,-2,-10,8,-2
6559576123,-6,6,1,-16,-7,2,2,3
6559585027,17,6,4,32,9,-12,-2,-2
6559585027,11,13,-19,-22,-4,3,-2,0
6559600039,-15,-41,-10,-20,4,4,-5,-7
6559600039,-12,24,-3,32,9,11,2,0
6559601529,6,-12,9,-5,-9,-11,-2,0
6559601529,27,-15,-7,-5,-3,2,4,7
6559622362,-29,20,-10,-7,-6,-9,-8,-10
6559622362,10,-74,8,8,-10,-7,-6,-2
6559623988,-12,60,-21,-40,-5,0,4,-3
6559623988,26,102,28,22,16,8,11,10
6559636775,-15,-42,-25,-22,-11,-4,-2,-5
6559636775,13,-9,11,20,3,2,-2,4
6559643657,-22,-71,13,24,-18,-11,-10,-12
6559643657,-6,34,-39,-43,-5,-2,-5,-1
6559660099,19,-31,5,26,6,-3,6,12
6559660099,5,38,-27,-28,3,6,-3,-1
6559661540,-3,-32,-2,3,-7,0,3,-6
6559661540,-28,-40,5,18,-3,-6,-1,-4
6559673525,39,57,7,-19,-2,-2,-15,-3
6559673525,5,-43,-6,27,10,1,-3,0
6559682523,-32,-48,-24,-20,3,1,0,4
6559682523,-11,-14,8,12,-20,-3,1,-5
6559696829,11,13,-5,-4,10,-1,4,5
6559696829,16,32,16,9,2,1,-11,0
6559703573,5,70,1,-25,3,3,33,2
6559703573,6,-21,-2,6,-10,-14,-28,-1
6559735662,-14,-19,11,36,-7,2,7,-1
6559735662,-18,17,-16,-48,13,5,2,-6
6559737195,20,-9,4,17,-2,2,6,1
6559737195,-19,-28,12,-4,-6,13,-3,-1
6559738021,19,-9,-14,8,1,-25,-16,-9
6559738021,-16,-16,2,-6,-8,6,-4,4
6559742521,-2,22,-5,-2,-25,-3,-7,1
6559742521,5,-10,14,0,31,10,0,-7
6559756752,0,4,9,48,20,6,2,6
6559756752,-1,11,-11,-38,-12,-3,8,-1
6559763675,15,1,-16,-14,-4,-11,-7,2
6559763675,-10,16,8,16,-13,-15,-16,-9
6559780051,-2,5,-5,4,12,16,20,0
6559780051,8,15,-5,-1,-7,-2,1,2
6559781494,-4,-3,0,-12,-2,10,-6,-4
6559781494,0,-13,8,4,7,-6,3,4
6559793645,-5,-1,-3,-43,-15,-10,-8,-4
6559793645,-7,-4,-5,22,1,-3,5,0
6559802499,2,15,3,-7,4,-18,-12,1
6559802499,-5,-2,15,15,-9,14,4,-1
6559816806,-2,3,-26,-27,-15,-5,1,-2
6559816806,5,12,11,2,6,5,6,3
6559823683,0,-10,1,16,9,3,0,-5
6559823683,0,-2,-7,-13,10,-2,5,-4
6559839860,-7,0,7,4,-9,-2,-4,5
6559839860,-11,-21,-12,-6,-10,-6,-7,-10
6559841482,1,9,7,3,10,-4,7,6
6559841482,4,-7,-13,-12,-11,-4,-6,-1
6559862512,-7,7,-1,-7,-3,6,-6,-5
6559862512,-3,1,-4,2,-4,0,-3,-4
6559864017,0,1,4,2,4,-8,8,3
6559864017,-20,-30,-20,-14,-5,1,-7,-7
6559876183,-1,10,8,1,-1,-9,5,1
6559876183,5,1,3,-2,3,8,-8,0
6559885005,6,1,0,5,-1,-2,-9,0
6559885005,-2,-4,-12,0,2,2,6,3
6559899992,-4,2,5,-5,-5,-8,-10,-3
6559899992,0,8,3,1,-3,-5,8,-5
6559901463,4,2,-3,2,4,11,-23,2
6559901463,-1,-11,-2,0,-2,-1,21,4
6559922442,3,3,7,1,2,9,3,-1
6559922442,-4,3,4,3,-7,-20,-13,-3
6559924017,-3,-13,-4,-2,-2,14,1,-2
6559924017,8,4,-2,0,0,-1,0,1
6559935982,-4,-4,-2,-2,2,-2,-6,-1
6559935982,12,0,6,6,-5,-17,15,1
6559945011,-13,-3,-1,-4,5,18,9,-3
6559945011,-8,-1,-4,-3,-3,-9,-3,-2
6559959948,-7,-8,-4,-13,-8,5,21,5
6559959948,12,-3,3,12,8,-3,-5,4
6559961538,-7,14,4,8,1,4,12,1
6559961538,-5,18,2,1,-1,-2,-20,0
6559982439,23,5,1,-2,-5,0,-6,1
6559982439,-8,6,9,-9,-2,-4,-5,-1
6559983966,0,-4,-11,-14,-8,-5,6,-6
6559983966,6,76,-19,1,14,9,6,2
6559996862,-14,33,20,16,-15,-12,-7,1
6559996862,-13,-62,-38,-8,9,10,3,-2
6560003731,18,47,26,-33,-17,-13,-11,3
6560003731,-11,-53,-37,-2,0,-7,-7,-14
6560019145,-14,-17,-1,27,0,1,-5,-1
6560019145,-4,49,4,-2,0,2,2,-1
6560025999,-10,-74,2,16,1,-4,-4,-2
6560025999,12,11,13,1,-1,-1,4,7
6560033498,14,18,6,-27,-5,-5,-2,-1
6560033498,1,-51,8,46,9,14,0,-2
6560042480,8,66,-12,-16,3,2,18,-2
6560042480,-40,10,5,-23,-9,-6,-24,-3
6560056660,-9,-24,9,28,18,11,1,-3
6560056660,7,21,3,-31,-7,3,9,5
6560063488,-5,-4,0,6,-11,-13,1,-2
6560063488,22,25,14,23,6,10,11,0
6560078894,7,33,-10,-4,3,-6,-5,-1
6560078894,-5,17,8,5,-4,-8,-13,-3
6560087508,-7,-5,-5,12,-8,5,32,2
6560087508,-9,-54,-13,-53,-14,-11,-15,-8
6560093491,-4,-3,4,28,3,5,-1,-3
6560093491,19,-10,3,7,27,6,4,5
6560102464,1,-27,1,26,0,5,-11,-3
6560102464,-15,6,8,0,3,-11,-5,-2
6560116637,9,-25,-6,-13,2,0,2,-3
6560116637,-12,-4,-2,6,-17,-13,1,-5
6560123502,-13,2,-19,-10,-12,3,-5,2
6560123502,19,-9,10,30,0,1,3,-1
6560139196,-10,-8,-5,-17,14,-4,-3,-6
6560139196,-22,-26,0,-63,-19,2,-5,-10
6560145976,3,-5,-15,-23,15,-5,-7,0
6560145976,10,-3,6,8,-4,2,3,3
6560162334,0,19,-5,9,-5,1,4,0
6560162334,-10,6,-4,4,-3,-10,-7,-5
6560163953,8,-6,-18,-11,1,-2,-4,0
6560163953,-6,-16,-13,-27,-5,-9,0,-4
6560176690,4,45,7,8,-16,-4,1,3
6560176690,-9,6,-6,2,8,10,2,-4
6560183449,4,-4,7,10,5,2,-5,-1
6560183449,0,-3,-9,7,-3,5,2,5
6560199172,5,-11,-12,-17,-2,0,2,1
6560199172,10,5,-10,5,-4,-12,-6,1
6560205950,-3,-21,12,-4,6,12,10,2
6560205950,-1,20,10,6,1,-2,1,-4
6560221636,4,-10,-4,5,5,0,4,5
6560221636,-18,-7,-5,-13,-10,-1,3,-6
6560222412,16,17,-11,17,7,-24,-24,3
6560222412,6,9,8,11,2,17,36,7
6560244127,-15,-25,-4,-10,0,5,1,0
6560244127,15,10,4,10,-1,-6,-6,0
6560244935,-3,4,8,3,-3,-11,-21,-9
6560244935,-9,-16,-12,1,9,5,26,-1
6560259962,-2,-11,5,-12,-7,-1,-1,-6
6560259962,12,14,-2,0,-6,6,-35,8
6560265957,-11,-3,1,-3,-9,-12,-2,-9
6560265957,0,1,-1,-4,-5,-10,-18,-3
6560281747,12,-8,-1,-1,3,0,1,2
6560281747,-21,0,6,6,-1,-13,-6,-5
6560282583,-4,-2,2,-2,3,25,-8,-2
6560282583,16,-7,0,1,-1,-2,-12,5
6560304219,-18,-2,1,-1,-2,-14,4,-5
6560304219,4,2,-2,0,-2,11,8,-1
6560305007,-16,-22,1,-2,-1,-17,-4,-2
6560305007,14,-7,4,4,0,8,8,0
6560318569,0,8,-10,-13,-3,-2,-5,-6
6560318569,-14,0,0,0,-3,-1,10,-2
6560326120,-4,-5,5,9,2,2,17,4
6560326120,5,6,-5,-19,-11,-21,-16,1
6560341655,-9,-2,-1,11,2,14,-1,-5
6560341655,24,21,15,20,5,3,-16,12
6560342512,11,-22,-21,-15,11,19,4,-4
6560342512,-45,-2,-6,16,-3,-5,-11,-11
6560357532,31,45,26,-4,-2,2,3,10
6560357532,-17,13,-22,-43,-23,-9,-2,-16
6560363544,-2,36,-8,14,12,1,6,5
6560363544,-9,-51,-19,-7,12,11,-3,-6
6560378602,-8,-52,4,-2,-6,-2,-3,0
6560378602,-11,0,2,-6,-4,-3,7,0
6560386067,17,-3,16,12,-9,-5,-5,9
6560386067,-9,17,8,1,-1,-6,-2,-5
6560401657,-15,-2,-38,-30,-9,-6,-8,-6
6560401657,38,53,16,21,10,3,-2,-2
6560402580,3,-58,-22,-11,-1,0,-8,0
6560402580,-34,-46,3,16,7,8,5,-4
6560417525,12,5,10,4,6,7,-1,3
6560417525,-9,-19,3,5,1,-2,17,3
6560423626,1,40,10,16,-1,-5,-11,-4
6560423626,25,27,10,-8,5,2,-5,8
6560438542,-11,11,-7,-10,-9,-7,2,-4
6560438542,-2,2,-18,-10,-15,-12,6,-3
6560446150,-7,3,13,14,-12,-8,1,0
6560446150,7,27,-12,-24,6,-12,1,-4
6560461793,-2,-27,-3,13,8,-2,-9,0
6560461793,5,0,3,-18,15,20,7,-1
6560462498,-13,-16,21,33,1,-14,20,9
6560462498,6,-11,-18,-12,7,14,3,-1
6560477505,-1,1,9,5,9,-10,-3,-7
6560477505,0,-24,-4,-4,-21,7,15,3
6560483531,-2,-2,6,-10,17,11,-4,-4
6560483531,-9,-1,-3,20,9,-7,5,0
6560498619,11,-8,4,-6,-22,1,-2,3
6560498619,-16,-55,2,-8,-19,-2,-8,-4
6560506132,-7,1,4,-9,-7,9,-1,-4
6560506132,-1,6,5,-14,0,1,1,0
6560521774,-10,-6,-5,-1,-3,-7,-4,-6
6560521774,5,6,4,-5,-7,-7,-6,0
6560522451,7,25,-16,12,4,0,3,1
6560522451,19,15,11,9,9,9,6,7
6560537451,-7,4,-15,-19,-12,-7,-6,-3
6560537451,-9,-15,-2,29,5,-2,0,-2
6560543620,-10,2,-2,-28,-1,7,-1,-7
6560543620,10,9,-1,9,-10,-7,-8,-1
6560558609,-19,-16,6,2,1,5,1,-2
6560558609,4,10,2,12,9,-16,-2,2
6560566093,-2,-3,6,-15,-10,-6,1,-7
6560566093,5,2,7,1,-7,3,-5,-2
6560581763,-1,20,11,8,4,3,-8,2
6560581763,-5,-13,-3,0,6,-2,-1,-1
6560582470,12,20,-2,-6,3,-4,3,-1
6560582470,-1,-7,-1,3,-8,4,10,3
6560597477,4,15,13,16,6,-5,-29,2
6560597477,0,6,-4,1,9,11,8,4
6560603594,3,5,-5,-3,-5,-10,-4,0
6560603594,-12,-16,-4,-7,-10,-33,-31,-6
6560618557,11,-4,-1,3,7,36,30,2
6560618557,0,-1,-5,-6,0,-3,-9,-1
6560626137,-3,-4,-2,-4,-2,15,-7,-5
6560626137,6,2,4,2,-8,-23,15,2
6560641549,-8,-6,-10,-7,0,-6,9,1
6560641549,-4,-9,-2,3,4,3,-8,-7
6560648593,5,-1,-2,0,-1,-5,5,2
6560648593,1,7,-1,-1,-7,4,-5,-3
6560657521,-22,-5,-1,3,-1,-1,-1,-4
6560657521,-1,-5,-5,-4,1,-6,8,0
6560663612,3,7,2,-3,-5,-1,-12,-1
6560663612,1,2,-7,-6,-3,13,5,2
6560678564,17,0,-3,-3,-4,-6,3,-1
6560678564,-10,5,4,6,2,-10,-12,-1
6560686143,-8,-2,-5,-9,1,2,2,-4
6560686143,13,-19,0,-14,-13,-3,0,2
6560701621,-14,28,-6,11,-8,-12,1,-5
6560701621,8,45,20,12,12,13,3,-1
6560702426,5,35,-20,-23,6,3,-1,0
6560702426,-5,-14,-3,2,-9,2,-4,-6
6560717467,12,21,5,-6,4,-1,-2,7
6560717467,12,14,14,16,-13,-10,-10,-2
6560723631,-14,-57,-20,-34,-2,-3,-2,-2
6560723631,-2,9,-1,13,1,-5,-7,-3
6560738596,24,31,8,6,-2,-9,-5,-1
6560738596,1,-20,-9,-5,4,10,9,5
6560746080,-12,36,3,-6,-4,-4,4,1
6560746080,-26,16,9,27,2,0,-9,2
6560761740,7,5,9,5,3,1,11,-12
6560761740,-22,-12,-22,-28,-5,2,-14,0
6560762468,23,2,8,21,1,-5,-4,-1
6560762468,-13,8,-3,-38,-2,2,3,0
6560777467,-1,-73,-16,22,4,0,-9,1
6560777467,12,25,1,1,5,-6,-3,0
6560783520,-10,-8,6,-6,-21,-6,0,-4
6560783520,9,9,-7,0,7,-3,1,1
6560798588,-4,6,3,-6,1,1,5,-2
6560798588,-10,-21,-8,-4,9,12,20,-3
6560806085,-13,-40,-5,-4,-10,-2,-12,1
6560806085,16,16,10,2,-5,-4,-7,-4
6560821779,-2,-34,-13,-17,-19,-10,-1,2
6560821779,-11,-17,10,4,17,-10,3,-6
6560822478,-2,29,0,6,2,20,5,-5
6560822478,8,-19,0,23,12,6,13,4
6560837487,0,-4,-3,-17,-4,4,-2,4
6560837487,10,11,-15,-11,-3,-10,-3,-1
6560843595,-8,-14,18,15,13,2,-2,-2
6560843595,6,5,-18,14,6,3,13,2
6560858605,-11,-4,5,-18,-5,-2,-9,-7
6560858605,6,8,5,13,-29,-2,0,1
6560866113,1,-11,-18,-10,23,-8,-4,-3
6560866113,4,6,-8,-2,2,0,-5,1
6560881039,2,30,11,43,-1,0,5,3
6560881039,-12,-4,-9,-29,3,1,2,-2
6560888548,6,2,-1,-1,-14,-16,-9,-3
6560888548,-7,-2,-7,-10,-3,2,0,-1
6560897491,0,6,6,4,5,-3,1,0
6560897491,0,-21,-8,2,-2,-2,-18,-3
6560903632,-2,5,2,5,-12,3,-3,-4
6560903632,-7,9,13,-8,-3,-3,-1,0
6560918568,-23,-22,-1,-15,-5,-3,-7,-12
6560918568,3,2,1,3,-4,3,6,3
6560926068,12,13,3,1,-2,-8,3,2
6560926068,8,9,15,5,-5,-1,-4,2
6560940903,-4,9,-7,-13,-3,-20,-16,-3
6560940903,-5,-18,2,11,7,-6,-1,-4
6560948481,-10,-7,-1,8,-2,4,7,1
6560948481,3,-10,2,-12,-7,17,-19,-11
6560964167,4,-6,-15,-2,3,-15,-7,11
6560964167,-3,10,1,0,9,14,0,-4
6560964997,3,0,9,12,3,-1,0,2
6560964997,-12,-7,-9,-8,-6,-17,-16,-11
6560978499,6,3,-3,-13,-3,5,12,6
6560978499,10,14,-2,6,-2,15,-8,1
6560994342,-3,-1,2,-2,1,-4,-1,0
6560994342,-5,-15,-4,-3,-3,-5,-5,-4
6561001059,-8,-1,-3,1,3,0,-6,-2
6561001059,2,2,4,-1,-2,-3,6,-2
6561008584,13,-10,-5,-3,-4,-6,-5,3
6561008584,-4,-8,-1,-5,-3,-4,8,0
6561024285,-4,5,0,4,-2,3,-22,1
6561024285,9,-10,-4,-7,-2,0,3,2
6561024975,-10,-8,-3,-8,-4,-5,-6,-5
6561024975,-9,2,-1,2,0,5,10,-2
6561038608,7,-6,-1,-4,4,3,4,-1
6561038608,-13,-5,5,7,-4,-4,-6,-4
6561046099,9,11,0,0,-7,-3,-2,5
6561046099,-2,2,4,5,3,-2,-2,-4
6561061054,7,6,3,25,15,12,9,0
6561061054,-18,-29,-11,-15,-11,-11,-3,-4
6561068504,-4,-2,-14,-5,3,1,4,-2
6561068504,10,8,11,-8,-3,4,8,6
6561084222,-16,-7,5,6,-11,-11,-5,-10
6561084222,17,9,12,35,-7,-4,-4,1
6561084974,-23,-14,-35,-53,14,11,5,-5
6561084974,2,-21,6,8,3,2,0,4
6561098625,6,12,-9,-10,-2,3,4,1
6561098625,-11,-22,1,0,-15,-10,-4,-3
6561106085,7,-1,14,-15,-7,-5,2,2
6561106085,7,-3,-2,45,-5,-2,-2,2
6561121057,0,12,-12,-40,8,4,2,-4
6561121057,12,1,3,31,9,4,3,3
6561128566,-2,35,1,-28,-9,0,-1,0
6561128566,-13,-23,-15,-13,1,-3,0,0
6561144161,-9,-8,4,17,-3,1,-1,2
6561144161,8,43,11,-4,9,6,8,5
6561144970,-28,1,-3,14,-3,-5,-23,-13
6561144970,9,-14,9,4,-7,-4,3,2
6561158581,8,29,-5,-15,1,4,1,1
6561158581,-11,-6,-15,-52,-13,-9,-5,-7
6561166110,12,-31,1,40,9,-1,11,1
6561166110,-17,-22,-4,-12,6,4,-5,-3
6561181078,8,-15,3,8,-3,-8,1,0
6561181078,5,-14,1,-1,-3,0,2,3
6561188447,8,25,3,27,9,9,1,-1
6561188447,-2,13,0,-29,4,-2,-16,-5
6561204253,4,-21,-3,-1,2,1,22,-1
6561204253,-6,4,3,8,3,6,3,2
6561204972,3,-9,0,25,-9,-16,-4,1
6561204972,-3,0,-9,-30,-8,3,-5,-2
6561218524,-8,13,-5,30,19,13,-8,-3
6561218524,-5,-19,-8,-16,-5,-10,-4,-4
6561226100,19,7,-7,3,-7,-1,7,9
6561226100,-14,-3,-2,-16,1,3,8,-2
6561241114,8,9,-5,-9,-7,-8,-1,3
6561241114,-4,4,6,30,-6,4,1,-3
6561248496,-15,-34,5,-11,-10,-6,-10,-10
6561248496,-5,5,3,-22,-5,-2,5,-3
6561264258,-3,-5,-17,-22,-15,-4,-5,1
6561264258,0,10,-2,0,6,0,-2,0
6561264988,-4,9,12,9,-4,-2,-5,-1
6561264988,-6,-19,6,3,3,2,2,0
6561278514,4,3,-6,1,4,9,7,0
6561278514,6,5,-20,-14,0,1,1,3
6561286104,-12,-6,11,11,2,-10,-5,-6
6561286104,0,1,-19,-2,-3,4,3,-3
6561300957,17,12,4,10,0,-6,2,8
6561300957,-7,-13,5,7,13,13,5,-1
6561308558,3,2,-1,-3,6,4,1,6
6561308558,13,29,0,19,1,-1,1,2
6561324226,-17,-13,11,-8,-7,-2,-7,-8
6561324226,0,10,-7,-13,-2,-8,-6,-4
6561324985,-15,-5,-3,-5,2,3,1,-6
6561324985,14,14,8,14,2,-6,-2,4
6561338606,-4,-13,1,-3,-6,-12,1,1
6561338606,3,4,2,-8,-4,8,10,-5
6561346086,2,-1,-6,-1,1,4,-18,6
6561346086,-6,-3,-1,3,-2,-7,-8,-5
6561361087,-6,-9,1,-1,0,7,1,-1
6561361087,1,12,4,0,1,-18,8,0
6561368584,10,10,4,-4,-6,13,6,2
6561368584,-2,-6,-7,0,-3,-4,-6,-5
6561384166,-13,-16,0,-5,-4,-1,-4,-4
6561384166,4,0,-3,-1,-1,-6,-14,-2
6561385097,-4,-7,2,-2,-2,-1,4,-1
6561385097,-1,-11,-6,-4,1,-1,1,1
6561398544,2,2,-1,-2,-3,-14,-3,-2
6561398544,9,7,0,-3,0,17,-1,2
6561406056,-7,-12,-3,-2,-1,-3,2,-1
6561406056,0,2,-5,-3,-6,0,5,-1
6561421052,-5,-1,0,-3,1,-6,-9,-5
6561421052,0,9,4,8,0,-10,-2,3
6561428542,13,7,-2,-12,-12,-7,2,-4
6561428542,5,-27,-6,-2,5,15,-2,0
6561444232,-25,23,-1,5,8,6,3,-9
6561444232,-17,-25,-21,-26,-6,-5,-4,0
6561444944,15,39,-3,-5,-1,0,7,1
6561444944,15,11,-4,-3,-12,-16,-8,-2
6561458520,-20,6,-2,3,0,2,-7,-2
6561458520,6,26,10,17,-2,-1,5,-2
6561466103,-24,-54,-11,-18,-3,-6,-6,-3
6561466103,-2,32,17,23,-8,-6,-1,-4
6561481086,28,-14,-20,-19,9,5,-1,6
6561481086,-9,-18,-19,-16,-9,-2,-2,0
6561488581,22,-13,10,9,-4,-1,-3,2
6561488581,-24,37,4,10,7,-1,-1,-4
6561504218,-19,-49,8,6,-1,-4,0,-8
6561504218,8,20,20,40,10,7,-2,-4
6561504946,12,-14,-22,-23,5,3,4,5
6561504946,-10,-5,-4,-15,-2,-1,0,2
6561518559,12,30,4,-18,-12,-5,-7,3
6561518559,2,-20,-7,6,1,-5,-5,-4
6561526056,-9,25,9,14,1,-2,-4,-6
6561526056,3,-1,-2,-8,1,1,-1,2
6561540959,5,24,2,11,-10,-4,5,6
6561540959,13,-4,-2,-26,-5,-1,-5,-2
6561548561,-17,-10,1,13,12,8,6,0
6561548561,0,-19,-3,19,2,-4,1,-4
6561564209,10,-19,-8,-11,-10,0,1,4
6561564209,-10,-15,9,23,-4,-12,-5,-2
6561564979,-13,-12,4,0,-4,2,-1,-6
6561564979,7,-12,-3,-8,1,-5,3,1
6561578473,3,3,6,11,2,-1,-4,-3
6561578473,-4,-4,-10,-7,1,-1,-2,-1
6561586083,1,13,20,13,2,3,6,2
6561586083,-7,-5,-15,-20,-15,2,-9,-4
6561601080,4,-12,5,14,5,-4,10,-2
6561601080,-6,-2,-6,-24,4,4,3,4
6561608520,-6,-8,-6,-5,-13,-8,-5,-4
6561608520,15,21,2,24,5,6,-1,2
6561624260,-5,-5,5,-17,2,-2,-7,0
6561624260,-7,5,0,5,-2,-2,2,-3
6561624924,0,-3,2,10,1,2,-11,-1
6561624924,1,-5,-3,-30,-7,-13,-5,-2
6561638434,3,6,-16,-7,-3,1,2,2
6561638434,-8,17,6,-6,-6,3,2,-2
6561646034,7,12,-2,-3,0,-12,-10,-4
6561646034,-7,-5,11,10,7,1,1,-1
6561661059,-4,-6,4,0,1,15,10,-3
6561661059,-2,7,-6,-8,-3,-16,-13,-2
6561668570,0,-4,-4,-3,1,11,9,1
6561668570,-5,-2,-6,-2,-2,-9,-6,-3
6561684214,6,13,4,2,0,-7,-1,-3
6561684214,-3,-11,4,8,0,4,2,3
6561684949,-1,2,-9,-9,-3,-4,-3,-4
6561684949,-12,-10,-2,-1,-2,-12,9,1
6561698541,-16,0,-2,0,-4,2,-10,-5
6561698541,4,3,0,-1,5,7,-4,-3
6561706083,8,6,2,5,4,-4,7,5
6561706083,3,-1,0,-5,-3,-4,-7,0
6561721063,1,-6,2,2,-2,7,-20,0
6561721063,-6,-7,-1,0,4,8,12,0
6561728560,-3,-2,-6,-6,-1,-1,1,2
6561728560,1,1,-6,1,-2,3,0,0
6561752430,-10,-9,-2,-3,-2,-1,-5,-5
6561752430,8,-6,4,1,-2,-4,1,2
6561753092,1,12,-2,1,-3,1,-7,-2
6561753092,0,1,2,-1,0,1,3,-2
6561758587,-2,-12,2,5,-2,-4,3,1
6561758587,-4,0,-5,-12,-6,2,1,-3
6561766083,7,2,0,3,2,-8,0,2
6561766083,-4,-4,0,-5,-2,15,1,-1
6561780964,3,-5,-5,-3,1,-1,6,-2
6561780964,-5,10,3,3,-2,-6,-3,1
6561788479,-4,0,5,2,-4,-3,-7,-1
6561788479,-2,-4,-17,-5,5,1,-1,-1
6561804235,-11,-6,-7,-5,-5,-5,2,1
6561804235,-7,-5,6,1,-9,-4,-8,-4
6561804953,1,-8,-1,8,8,-1,2,-4
6561804953,9,15,6,-1,-1,1,-1,2
6561818565,1,13,1,2,6,3,3,-2
6561818565,35,8,3,-5,-7,-2,3,4
6561826058,-48,5,2,40,0,-3,-3,-5
6561826058,-6,-29,-33,-55,-3,-1,-1,-3
6561841106,8,-1,-3,4,5,3,4,2
6561841106,-1,12,10,-2,-2,-1,-3,-4
6561848557,24,-7,8,27,0,3,2,5
6561848557,8,17,9,-8,-2,-3,-1,4
6561864147,7,23,-8,-10,-12,-5,0,1
6561864147,-16,-3,1,-3,-1,0,0,-4
6561865116,-8,-29,-18,-17,5,0,-1,-6
6561865116,-12,24,26,37,-4,-2,-1,-3
6561878538,28,-42,-11,-14,2,1,0,3
6561878538,-3,74,11,-14,1,1,5,6
6561886039,-19,0,-14,-23,1,5,-4,-5
6561886039,-11,-31,0,19,1,4,3,-6
6561901041,11,5,2,-1,-8,-8,-9,0
6561901041,7,-35,-4,1,3,-2,-3,0
6561908558,4,28,10,10,-12,-6,-2,5
6561908558,6,-7,-1,2,-3,-2,3,-1
6561923548,-19,13,8,-1,3,-1,3,-4
6561923548,-11,-22,-15,-2,-2,-2,-6,-3
6561931611,-3,-7,8,-2,-3,3,18,3
6561931611,8,-13,-13,-11,-6,-6,-21,-4
6561938367,-6,2,8,26,12,-1,3,-1
6561938367,-8,-9,-4,17,2,4,-4,-2
6561946023,17,-12,-11,-33,-6,-1,-1,-1
6561946023,1,11,8,-8,-2,-3,3,2
6561961085,-6,-7,-13,-8,0,5,4,-3
6561961085,-7,-14,-6,4,8,0,-3,0
6561968525,-1,-9,-6,-8,-14,-9,-7,-6
6561968525,5,11,10,22,13,11,1,2
6561983592,-16,-20,-15,-10,-5,-16,-11,-9
6561983592,-4,-29,4,21,-8,-1,-2,-3
6561991693,6,16,-20,-50,-7,0,-3,1
6561991693,8,20,5,11,-8,-12,-1,1
6561998426,-7,-4,9,2,-5,-1,-2,-1
6561998426,-2,-18,4,-13,3,0,-3,-4
6562006043,-1,8,9,5,-2,-3,-3,-2
6562006043,-8,-12,-19,-16,1,2,0,-1
6562020940,-7,5,2,8,-3,0,2,0
6562020940,-6,-35,-10,-3,10,6,3,0
6562028533,8,9,5,3,-1,-3,-3,1
6562028533,-9,-19,-3,-3,-1,0,2,-4
6562043514,-1,-2,5,-6,-5,-2,-3,-3
6562043514,11,10,-3,6,8,2,2,4
6562051664,2,4,11,17,9,4,1,1
6562051664,-5,2,-2,3,-4,-3,-3,0
6562066638,11,13,6,3,-1,-2,-5,3
6562066638,-3,8,2,-2,-4,0,6,5
6562067432,-3,-5,-1,3,0,-2,-2,-2
6562067432,-8,0,-5,-7,-4,-4,-2,-4
6562080973,8,4,1,-2,-2,1,-3,2
6562080973,6,8,-6,-7,-4,-9,-14,-3
6562088535,0,-10,-6,-4,-1,8,7,-1
6562088535,-5,5,7,1,0,0,0,0
6562103519,-10,-6,-2,-2,4,0,5,-1
6562103519,-9,-9,-10,-11,-9,-7,-4,-6
6562111716,1,-3,1,-1,-3,-3,-8,3
6562111716,-1,0,-1,-1,1,-3,-1,1
6562126700,3,-4,-7,-5,0,2,-1,-1
6562126700,9,10,2,-3,-3,-7,0,-1
6562127456,-2,1,-3,-1,-2,2,-17,-2
6562127456,-1,5,3,5,2,5,18,-2
6562141113,-3,-11,0,3,-2,-11,-5,1
6562141113,-1,1,-1,-4,-3,17,7,4
6562148580,-2,-2,-2,0,-1,-4,-2,-4
6562148580,-3,-9,0,-3,0,-6,0,-2
6562163588,7,0,0,1,-2,7,-4,3
6562163588,8,5,-3,-2,0,-9,-1,-2
6562171730,8,6,3,4,2,2,3,3
6562171730,-16,-14,-2,-2,-4,0,-1,-3
6562186661,5,8,-3,-6,-3,1,3,-1
6562186661,-3,4,1,-2,-3,0,-3,-2
6562187550,-6,-8,-2,-1,3,-1,1,-2
6562187550,19,40,16,20,7,5,-2,2
6562200995,-16,-77,-15,-5,1,0,-4,-5
6562200995,13,62,-1,-6,9,1,-1,3
6562208552,-15,-56,-17,-12,-15,-8,-4,-6
6562208552,21,89,35,8,-13,-8,-7,5
6562223538,-8,-19,-34,-19,12,8,7,-5
6562223538,-2,3,24,30,5,2,3,4
6562231736,3,24,-20,-37,1,-1,-1,-3
6562231736,-5,-10,9,-7,-3,-1,-4,-4
6562246761,-9,-19,-8,-4,-15,-7,-6,-2
6562246761,-13,-28,10,0,1,-7,-5,-6
6562247425,-3,-32,-14,1,3,7,7,6
6562247425,-12,24,8,15,0,-1,-4,1
6562261064,28,45,10,-12,-11,-3,-3,-1
6562261064,-10,-18,-24,-23,-11,-7,-5,-5
6562276702,-3,16,18,14,10,5,1,-3
6562276702,6,-28,-15,-11,-4,1,6,-1
6562283576,-13,2,14,22,4,-2,-18,-6
6562283576,4,37,-5,5,-6,-2,2,4
6562291724,1,39,10,-3,-9,-8,-6,0
6562291724,-4,-22,-14,5,-6,-7,-4,-5
6562306638,-2,12,0,-1,3,7,11,6
6562306638,-6,-40,-2,9,14,12,1,0
6562307420,-1,1,-2,-2,2,-3,-1,-7
6562307420,10,-37,1,27,-20,-6,-7,1
6562320972,3,6,5,-12,0,-13,-3,-1
6562320972,-29,-27,-14,-30,12,8,3,-12
6562328479,17,-3,13,13,-11,6,10,8
6562328479,-9,-15,-12,2,22,11,2,-5
6562343546,14,21,3,21,3,6,3,8
6562343546,-1,-9,4,-6,-24,-16,-7,-4
6562351732,-3,5,0,7,6,-5,-3,-4
6562351732,-1,-18,-13,-32,-3,4,0,3
6562366672,-15,-2,11,19,19,12,8,-2
6562366672,5,-5,-14,-3,4,4,2,3
6562367371,7,2,1,-1,-10,-11,-7,1
6562367371,-2,17,4,-12,-4,0,3,3
6562381062,-2,1,3,4,-9,-1,1,-2
6562381062,5,10,-6,-19,-8,-7,-2,-3
6562388515,-9,-13,-16,-23,1,-1,-5,-6
6562388515,6,0,-11,2,5,2,4,2
6562403535,-1,11,4,-11,0,-5,-1,0
6562403535,3,-2,4,9,-8,-2,-2,-5
6562411671,1,5,1,12,-2,0,1,0
6562411671,-7,-8,-1,-8,1,-1,-4,-5
6562426719,3,14,1,8,2,-3,0,2
6562426719,-5,-5,-3,2,0,4,2,1
6562427379,-1,-10,-1,5,7,3,0,-2
6562427379,-3,8,-7,-10,-4,-10,-9,-3
6562441028,-3,1,-3,-8,-9,-5,-3,-4
6562441028,9,6,6,14,7,2,3,5
6562449200,-6,-4,1,3,0,-3,3,-1
6562449200,2,-4,-1,-8,0,-5,2,-3
6562463517,-5,1,0,0,-4,1,-8,1
6562463517,4,3,4,3,3,10,3,0
6562471737,-2,-2,0,2,2,-5,4,2
6562471737,-8,-4,-3,1,-2,1,1,-1
6562486687,3,3,-5,-7,-4,-4,-2,-3
6562486687,0,3,-4,-1,-3,-9,-4,-1
6562487344,-2,0,6,1,-3,-4,1,-2
6562487344,-9,-10,-4,-2,0,-2,-6,-3
6562500981,2,2,-4,-5,-4,-3,2,0
6562500981,0,-9,-1,-1,-1,-2,-1,2
6562509228,3,-4,2,4,1,3,-5,-3
6562509228,-5,-7,-4,-2,1,0,-6,1
6562523551,1,-5,-3,-4,-2,1,8,-1
6562523551,-8,-11,1,0,-3,-3,-4,-5
6562531751,0,-2,1,0,0,0,-6,-3
6562531751,-1,-1,1,1,0,-4,1,2
6562546676,2,2,3,-4,0,1,5,1
6562546676,6,1,3,1,-6,-4,-5,-1
6562547354,-3,4,-9,-20,-7,-4,0,-1
6562547354,3,-7,-2,6,3,2,-3,-3
6562561005,-8,-1,3,2,1,1,-2,1
6562561005,4,0,-23,-18,3,5,4,-1
6562569198,-26,1,7,17,-1,4,0,-1
6562569198,8,22,1,-30,-2,-2,-2,0
6562583515,-10,-43,-2,18,-7,-5,-7,-5
6562583515,3,13,-2,-28,-13,-10,-4,-6
6562591653,19,-23,-15,-1,16,10,5,14
6562591653,-24,13,-13,5,-6,-6,-8,-11
6562606737,0,41,6,6,1,-2,3,0
6562606737,0,-33,0,-7,-9,-8,-7,-4
6562607401,-1,-3,-3,17,-4,3,-2,-6
6562607401,-1,-83,6,-14,12,5,5,7
6562621090,1,43,-18,-20,-11,-4,-1,-1
6562621090,11,16,20,35,3,1,-6,2
6562629227,-16,32,2,-10,-10,-6,-5,-3
6562629227,8,1,2,12,5,6,2,-3
6562643554,-22,-38,-5,-4,0,-5,-1,-7
6562643554,33,14,1,-9,-3,-1,3,11
6562651674,-17,3,8,10,-5,-6,-11,-2
6562651674,-1,24,1,9,-3,3,0,-3
6562666677,2,-8,-2,-22,-6,-2,-4,0
6562666677,-10,13,1,20,9,-3,2,-5
6562667367,17,2,3,-4,3,-2,6,1
6562667367,-10,-5,-2,3,-7,-6,-6,-1
6562681072,15,5,-1,1,-1,4,0,5
6562681072,-9,-35,-3,-7,14,7,1,-2
6562689192,6,-13,-6,-13,-14,-5,1,0
6562689192,-6,-3,0,1,5,3,1,-3
6562703557,-4,-16,5,13,5,-2,-4,-5
6562703557,-9,-3,-10,-4,-10,-7,-14,-3
6562711669,7,9,11,11,-3,-4,0,2
6562711669,13,7,-4,-11,-5,-4,-1,3
6562726678,-2,-10,0,4,17,9,1,-4
6562726678,-17,-10,-4,-3,3,14,4,0
6562727366,0,6,-11,10,2,-4,-1,-4
6562727366,7,-2,-2,-18,8,9,8,6
6562741003,-13,-21,10,-26,-21,-11,-11,-10
6562741003,-16,-27,-26,-18,3,1,4,-7
6562749184,-9,-20,-8,-11,-4,2,-1,-1
6562749184,14,7,0,18,0,-7,-2,1
6562763540,-7,6,0,11,1,0,0,1
6562763540,1,11,-4,-4,-4,-1,1,2
6562771617,9,0,6,11,0,-3,1,-1
6562771617,-17,-25,-4,-10,-1,7,-1,-6
6562786676,15,17,3,5,7,4,5,5
6562786676,-4,11,7,2,-12,-12,-8,-5
6562787366,10,3,-8,-7,11,8,5,5
6562787366,-4,12,5,21,-5,-7,-2,-3
6562800975,1,-2,-4,-8,-3,-4,0,2
6562800975,-11,-2,14,4,3,2,2,-5
6562817412,2,-6,-7,2,1,-2,-3,1
6562817412,-1,2,0,-5,0,4,3,1
6562823553,7,1,5,11,5,-1,2,1
6562823553,-2,9,-5,5,2,4,1,0
6562832403,-8,-4,6,-10,-3,-6,-2,-7
6562832403,17,1,-2,2,-8,1,-3,3
6562846060,-2,4,1,2,-1,-5,-3,1
6562846060,5,9,5,5,-1,-1,0,1
6562854912,-5,-15,-3,-5,-1,-6,-3,-3
6562854912,-9,1,1,-2,-2,5,-7,-4
6562861104,4,5,-5,0,2,3,6,1
6562861104,-7,5,-5,-3,-7,-9,-2,-3
6562876061,3,-1,6,-2,0,10,19,3
6562876061,-6,-12,-4,-3,-4,-19,-4,-3
6562883531,5,1,2,-1,2,0,0,2
6562883531,2,-2,2,2,-4,-4,-5,-2
6562892359,0,-3,0,-2,0,-2,8,-2
6562892359,-8,1,-1,-2,-2,8,-4,-2
6562906060,-4,-3,-4,2,-2,-1,6,-2
6562906060,9,-4,2,3,0,-5,-7,3
6562914910,-2,1,-1,-4,-1,1,-10,-2
6562914910,-13,0,-6,-3,-3,-3,5,-1
6562921046,-2,-4,-2,2,-3,3,-8,-3
6562921046,-2,-1,0,2,-3,-4,-2,-1
6562935828,0,14,4,1,-1,-3,-4,-3
6562935828,15,10,1,-4,-5,-4,-2,2
6562943335,-1,3,1,2,-3,-3,-2,-1
6562943335,5,1,-12,-15,4,4,2,-1
6562952382,-19,-31,6,20,9,6,1,-1
6562952382,17,43,-9,-12,-4,-9,-7,2
6562966051,-15,-4,-3,-15,-10,-3,-3,-1
6562966051,-4,27,12,-8,-2,2,3,2
6562974916,-1,-12,-27,-29,-4,-4,-6,-1
6562974916,4,2,21,45,8,8,5,-2
6562989875,5,-16,8,-38,-2,-5,2,3
6562989875,-1,8,-25,6,3,5,8,2
6562991351,0,7,4,-10,-11,-9,-13,-4
6562991351,-6,3,0,5,-9,-5,4,1
6563003440,1,33,-4,4,6,5,4,4
6563003440,-5,-32,10,18,1,-2,3,-2
6563012399,-3,-20,0,-15,8,6,-20,-8
6563012399,12,11,0,19,-1,-7,-10,3
6563026095,9,9,0,1,-5,3,9,1
6563026095,-29,10,-2,-17,12,0,4,-3
6563034890,23,54,4,12,-4,0,-5,4
6563034890,-10,-27,2,-10,1,-2,6,-4
6563049912,-5,41,8,12,-4,-6,-13,-3
6563049912,13,-22,-10,-22,-15,-15,-4,1
6563051359,8,-4,3,-9,-23,-7,3,-1
6563051359,-29,-35,-1,7,25,18,13,-2
6563063469,-1,-24,3,48,21,6,-4,0
6563063469,5,-14,-14,-17,3,1,-4,0
6563072395,-16,-9,4,-2,-7,-4,-5,0
6563072395,16,3,0,-9,-13,-12,0,-5
6563086016,-10,-28,-18,-7,-7,-6,-5,-6
6563086016,4,10,17,13,-2,2,-3,-2
6563094906,2,-17,-2,0,15,4,-2,1
6563094906,-3,4,-25,-40,4,1,2,4
6563109781,5,-6,2,18,4,-4,-2,-4
6563109781,-8,-9,3,26,-13,2,-4,-1
6563111315,12,31,9,14,10,8,9,6
6563111315,-19,-19,13,13,14,2,-4,-10
6563123529,-20,-28,-13,-59,-5,-4,-7,-10
6563123529,15,1,-19,9,-16,-11,0,1
6563132341,6,26,9,28,-4,-10,-2,0
6563132341,-9,-7,10,-13,-13,5,-2,-4
6563146075,5,4,-8,13,-10,-10,-3,-1
6563146075,0,1,2,2,2,4,0,-1
6563154943,-8,-22,-19,-65,-6,-1,0,-5
6563154943,2,-1,-29,-20,-5,-4,-6,4
6563169886,-17,3,30,22,3,4,1,-10
6563169886,6,-6,3,3,2,0,3,1
6563171365,-34,-31,-11,-8,0,9,3,0
6563171365,11,9,0,-1,-3,-2,2,3
6563183497,5,6,-8,-5,-1,0,7,5
6563183497,-11,0,28,7,3,-1,-5,-6
6563192382,13,15,4,15,15,12,19,10
6563192382,-2,-1,7,0,-6,-5,-2,0
6563206063,2,-1,-10,1,-2,2,-6,1
6563206063,3,13,8,0,1,-6,9,1
6563214914,-2,-7,-4,6,-8,-7,-6,-9
6563214914,0,-7,-4,0,-2,1,-6,5
6563229836,11,-4,1,1,4,1,13,3
6563229836,-1,7,-7,-11,-2,11,-10,0
6563231342,-17,-3,0,4,0,-11,2,-2
6563231342,-3,-11,-5,-1,-1,-10,-12,-9
6563243412,11,4,3,-5,-3,-5,-12,-2
6563243412,-10,-3,-10,-8,-4,1,-7,0
6563252366,-1,2,-3,4,-1,3,-11,-4
6563252366,11,-5,1,-2,-5,-9,1,-3
6563265988,3,4,-8,-6,-2,-1,2,4
6563265988,6,6,0,2,-2,-12,-17,-8
6563274893,-3,-8,2,1,-4,-12,-21,4
6563274893,-27,-14,-2,-2,-3,12,0,-3
