timestamp,emg1,emg2,emg3,emg4,emg5,emg6,emg7,emg8
7062316347,4,1,-7,-6,-7,-17,-37,2
7062316347,-3,-1,5,2,2,11,-8,1
7062317332,-17,-5,-3,-2,-2,9,2,-3
7062317332,4,3,-2,1,1,-2,4,2
7062317992,-4,-12,-2,0,4,5,1,-4
7062317992,10,6,3,3,-1,-8,3,3
7062329709,7,12,7,-13,-4,-9,-4,-2
7062329709,-4,-5,-2,5,2,7,-17,-3
7062333475,2,-4,1,-3,-2,0,10,2
7062333475,-9,-1,-5,-2,-1,-3,-1,-5
7062335531,0,-3,0,0,0,0,10,0
7062335531,18,-8,2,-1,-5,-7,0,-3
7062346950,-9,9,3,-1,0,0,-23,6
7062346950,-14,1,-5,-2,1,2,11,-5
7062358287,-7,-19,-3,1,1,-8,2,-2
7062358287,-6,3,0,-2,-1,10,1,0
7062366989,13,7,-1,2,0,2,1,2
7062366989,2,-9,-9,-11,-10,-10,-8,-3
7062374264,-2,5,-8,-3,-2,-3,-12,-3
7062374264,0,2,-3,-4,-5,-10,0,-4
7062389252,-9,5,3,-1,-1,3,16,-4
7062389252,4,-1,1,1,2,-4,-9,-1
7062395586,5,-5,-5,0,-1,0,-5,2
7062395586,20,8,-1,-2,0,-3,20,7
7062442900,-12,13,-1,-1,-2,-1,10,-4
7062442900,8,5,0,0,1,-6,3,-1
7062443643,1,-16,-4,1,-2,9,-2,1
7062443643,3,15,7,3,0,0,-1,1
7062444523,-12,-9,-10,-8,-2,-3,-7,-5
7062444523,18,2,0,-9,-4,-7,-2,-4
7062447837,-20,1,2,20,9,2,3,-5
7062447837,24,13,-3,-9,-5,-1,-1,12
7062455336,-27,-15,29,27,6,-3,-6,-5
7062455336,29,16,-35,-27,7,12,15,11
7062464136,-22,0,-1,-4,1,-2,-5,-7
7062464136,15,82,13,-3,-3,5,1,-3
7062470219,-33,-62,20,13,-12,-8,-10,-11
7062470219,-4,-11,18,-25,3,-2,-8,2
7062485287,14,-5,-24,-21,-6,-2,1,4
7062485287,-23,5,-16,-9,8,5,9,-5
7062492704,39,26,0,23,8,2,1,7
7062492704,-8,65,11,-1,-13,-2,-2,-2
7062501675,27,-3,31,12,-6,-3,5,9
7062501675,-24,21,-7,-2,-9,-12,-8,-9
7062515331,18,-7,-6,-22,-3,-3,-8,5
7062515331,4,-46,-5,26,16,15,14,-2
7062524173,12,52,15,-8,5,4,8,12
7062524173,-36,-1,-12,-11,-12,-6,-22,-21
7062530215,7,27,13,-6,-19,-8,-6,7
7062530215,-15,-16,-20,17,-1,-12,-18,-13
7062545307,-19,5,-18,-35,1,1,7,-4
7062545307,26,-55,18,33,14,6,10,8
7062552816,2,30,-4,-19,1,9,3,1
7062552816,-9,14,12,8,-12,-10,7,-7
7062561696,5,-1,-2,-4,3,-2,7,3
7062561696,-1,-6,-19,-23,-13,-11,-15,1
7062575286,9,5,-6,33,2,-5,1,-6
7062575286,-18,-15,-12,-25,6,13,27,4
7062584209,2,-11,2,18,0,-7,-14,-8
7062584209,3,-25,-2,-2,-5,-2,0,4
7062590365,1,2,-2,2,8,-2,6,0
7062590365,-12,-28,-8,-17,-6,-5,-10,-3
7062605307,0,-19,-3,-7,-20,9,5,-2
7062605307,6,-7,12,17,18,3,10,0
7062612829,-11,-48,-9,-34,-11,0,-1,-5
7062612829,-7,-17,8,47,31,14,0,-4
7062621694,9,4,-18,-47,-9,-11,4,5
7062621694,5,-24,14,17,-8,-11,9,-2
7062635321,-1,-7,-14,-25,10,5,-6,-2
7062635321,-24,-40,30,7,-17,0,-4,-7
7062644190,5,-1,-15,39,22,13,4,-5
7062644190,-5,-17,-3,-30,0,1,2,-2
7062650310,-8,-2,-8,6,-6,-15,-8,-8
7062650310,2,15,-21,-25,-18,-11,-7,-4
7062665257,-2,-12,5,7,-9,-8,-15,-2
7062665257,-13,-10,16,11,-2,8,2,1
7062672833,-3,1,-10,-17,-6,-13,-1,-2
7062672833,-1,-21,-5,4,6,19,-5,0
7062681664,-6,14,4,-1,-1,-3,7,-3
7062681664,-11,-6,0,-8,2,7,3,-2
7062695352,14,28,-4,18,10,4,5,4
7062695352,3,19,19,16,7,-7,-21,7
7062704165,-17,-32,-9,-11,-2,-3,-8,-11
7062704165,-3,-1,2,1,-8,-9,6,-2
7062710270,3,3,-8,2,2,1,12,7
7062710270,7,16,-1,-8,-7,-2,-3,-2
7062725275,-14,-5,9,11,0,-4,-27,-3
7062725275,12,5,-6,3,-3,-9,15,3
7062732836,-8,-8,3,-7,2,20,8,-6
7062732836,9,12,-6,1,-1,-3,4,13
7062741675,19,18,7,3,-7,-5,-3,0
7062741675,3,-21,-9,2,10,8,-19,-2
7062755308,-9,-14,0,-3,1,0,4,-1
7062755308,7,-13,3,-1,-4,-10,-17,-2
7062764136,-12,-5,4,6,2,-2,6,-1
7062764136,2,-7,-8,-9,-7,-9,-6,-4
7062770259,-4,-8,-2,4,0,-16,5,0
7062770259,-3,4,5,3,-2,21,11,0
7062785252,-4,-13,-2,-9,-9,-10,-7,-6
7062785252,11,-6,-5,3,2,10,6,10
7062792839,9,8,5,-7,-3,7,-26,2
7062792839,-20,4,-4,0,-5,-19,-4,-3
7062801668,0,17,-3,-6,2,-2,-5,-3
7062801668,3,-37,-12,-7,-7,-3,-7,-2
7062815261,11,55,39,21,3,6,13,0
7062815261,14,-82,-53,-48,-10,-8,-13,2
7062824155,-7,73,10,21,2,7,9,-2
7062824155,3,34,4,2,5,0,3,10
7062830246,-22,-62,-20,-14,-21,-7,-10,-8
7062830246,-2,5,46,33,5,-5,1,-7
7062845281,-2,-10,-47,-12,9,6,1,-1
7062845281,-3,-55,-17,-13,-12,1,-7,-5
7062852810,0,90,2,-29,4,-3,-8,4
7062852810,-24,27,-7,16,7,11,10,-4
7062861680,2,-12,35,36,-6,-5,-2,-2
7062861680,17,16,-35,-12,6,-1,15,13
7062875282,26,45,-6,-12,-2,1,-24,-7
7062875282,-12,-34,-20,-45,-2,-7,2,-3
7062884181,9,60,15,16,-11,-6,-2,-2
7062884181,-12,16,56,11,2,-1,-1,-2
7062890230,-13,-79,-11,-25,-3,3,9,5
7062890230,-1,-28,-26,5,-14,-13,-10,-4
7062905308,14,-11,4,-9,2,-3,0,6
7062905308,-6,14,11,59,3,4,-2,-3
7062912834,2,-33,-20,-24,8,8,2,-1
7062912834,12,43,13,-2,-2,5,3,5
7062927810,-13,-37,6,-6,-1,-6,2,-1
7062927810,7,31,-8,-19,-2,-9,-3,-6
7062935324,11,20,4,36,-3,11,4,6
7062935324,-15,28,4,-9,-5,-10,-11,-3
7062944128,-5,-2,-7,-2,2,-9,-7,1
7062944128,-12,9,8,-8,-6,7,-11,-9
7062950253,-15,-12,-25,-13,0,17,34,-3
7062950253,15,16,15,17,-3,-9,4,1
7062965269,7,-16,-15,-26,14,-19,-17,-2
7062965269,-24,-38,4,-9,8,18,3,-8
7062972761,9,-1,10,43,-9,-10,3,-3
7062972761,10,2,-6,-18,-1,-20,-8,-3
7062987787,-6,-23,-7,-10,3,24,9,-5
7062987787,4,11,4,14,3,4,1,-1
7062995281,-18,-24,13,3,-4,-10,-8,-3
7062995281,-1,5,-13,5,-14,8,8,1
7063004191,-1,-20,0,4,0,-12,4,0
7063004191,11,12,-19,-15,-9,-8,-8,1
7063010302,-1,5,-13,-16,2,-1,-29,0
7063010302,8,15,2,2,-3,1,-1,-4
7063025340,-7,-16,-7,-12,-25,-5,-2,-4
7063025340,-3,-10,-16,-12,5,-15,-6,1
7063032684,-1,7,13,6,7,-1,2,1
7063032684,8,13,-4,13,11,11,17,5
7063047828,7,15,8,13,13,-2,-4,0
7063047828,-4,9,19,1,-7,3,-5,3
7063055300,0,10,-8,-6,2,-2,2,-2
7063055300,-4,-4,16,11,12,15,0,2
7063064130,5,2,2,1,-3,-9,13,2
7063064130,4,13,4,0,-10,-14,5,-7
7063070274,-3,-7,1,1,2,18,11,6
7063070274,2,0,-4,-2,4,-1,5,-10
7063085183,-13,-8,-6,-4,0,15,-4,4
7063085183,3,-8,-7,-6,-2,-10,16,1
7063092714,3,-3,-2,6,3,-3,1,-4
7063092714,-4,0,3,-3,-2,2,25,1
7063107781,-10,-19,2,-4,-4,-22,-6,-2
7063107781,0,-13,-8,-6,-2,19,-22,-6
7063115306,7,5,6,7,2,-4,18,9
7063115306,-2,4,6,0,-2,6,-6,-1
7063124212,-30,-30,2,-4,-2,8,12,-11
7063124212,-1,9,-9,-2,2,-10,-6,7
7063130280,-7,-32,-5,3,-1,4,-7,-5
7063130280,-4,-4,1,-1,-4,-12,-13,1
7063145228,20,10,-8,-11,2,11,-6,5
7063145228,-7,-6,-5,-1,-2,-1,10,-5
7063161038,-4,14,11,7,-9,-9,-6,-1
7063161038,-4,16,3,13,15,1,-10,-1
7063167776,3,0,-5,-2,0,11,-3,2
7063167776,5,17,-5,-7,-1,-10,-3,5
7063175186,-16,1,-10,-3,0,-2,-7,-3
7063175186,-7,3,4,-3,-8,-3,-1,-5
7063184281,15,10,8,4,0,4,2,6
7063184281,10,49,4,-8,-10,-2,-11,-1
7063190225,-38,-17,-2,2,-2,-4,1,-11
7063190225,25,-21,7,3,5,-1,-19,-3
7063205291,-19,50,-44,-3,-5,-5,4,1
7063205291,-8,-32,-10,-8,8,4,3,-2
7063212787,12,49,11,9,4,0,-3,9
7063212787,-15,-35,-5,-3,-11,-2,-6,2
7063227648,21,19,20,-22,-9,-1,-10,-9
7063227648,14,-7,50,43,20,10,15,9
7063235253,10,42,-29,33,-13,-12,-11,0
7063235253,4,-57,-15,-7,26,3,5,-1
7063244178,29,30,16,-22,-10,-1,11,4
7063244178,-23,-6,-7,11,-13,-11,-22,-5
7063258381,-8,-15,23,-15,-10,-7,-7,-12
7063258381,12,-12,-26,-27,-2,-1,-3,10
7063265271,-24,8,-6,45,11,5,-3,3
7063265271,5,-3,-27,-24,-2,2,5,-2
7063272802,6,-82,3,-9,-4,3,5,-3
7063272802,18,85,22,21,-1,1,-9,5
7063287779,-19,-31,5,4,0,-4,-1,-8
7063287779,8,1,-11,-1,6,-4,21,8
7063295287,8,24,4,0,14,-12,-18,2
7063295287,-8,25,11,-12,-21,26,-8,1
7063304167,1,-25,-8,5,16,-8,-8,-1
7063304167,-11,8,5,-10,-38,-2,-5,-12
7063318489,2,-20,-13,-14,21,-1,5,2
7063318489,-5,-12,6,0,-7,-5,10,-2
7063325305,7,-17,22,79,34,14,-15,1
7063325305,-11,-28,-47,-100,-9,0,-9,-1
7063332667,8,-10,2,-7,-10,-7,6,1
7063332667,-6,-13,-10,-2,3,-12,2,-5
7063347795,-11,-21,12,-29,-27,11,2,-5
7063347795,-14,-25,14,24,12,2,3,-9
7063355294,-9,-23,3,-10,1,8,-1,-5
7063355294,-8,0,-12,-10,4,-6,2,0
7063364210,21,31,5,25,6,-3,7,4
7063364210,-12,-26,2,-7,5,0,-16,-9
7063378417,-3,1,-15,-30,-20,2,15,2
7063378417,4,1,-1,24,4,-8,1,-1
7063385310,-4,-1,-7,-44,-24,-21,-15,-4
7063385310,-3,8,18,43,7,15,-8,-7
7063392679,15,20,-7,-3,2,-6,-3,7
7063392679,-10,0,5,-12,-8,-8,-2,-8
7063407810,0,-10,-18,-4,-5,4,6,-1
7063407810,3,4,2,7,-1,-9,0,3
7063415272,5,17,12,5,11,-1,7,-6
7063415272,8,18,3,-1,4,16,23,11
7063430283,-16,-12,4,-16,-15,-19,-28,-10
7063430283,-6,-15,-9,11,3,9,6,0
7063438486,-2,7,8,4,-2,-2,-5,-5
7063438486,8,-12,-7,6,0,-2,-2,0
7063453369,-13,-4,-9,-6,0,-13,-5,3
7063453369,11,16,-4,-1,-1,14,16,2
7063454168,6,-9,-9,-4,-11,-7,-30,-6
7063454168,-4,23,17,6,6,2,-24,6
7063467845,2,-4,-8,-5,3,14,24,2
7063467845,7,-9,-2,3,1,-10,-10,-7
7063475261,-2,-10,0,0,-6,-6,4,4
7063475261,-12,-30,-4,7,-9,-8,-3,-5
7063490264,0,-27,-14,-15,1,14,9,0
7063490264,5,3,6,4,2,-2,-2,4
7063498426,0,-4,-10,-1,3,4,-3,-3
7063498426,-10,2,-3,-3,-2,-15,-4,-6
7063513415,-2,2,13,7,0,33,2,3
7063513415,5,-16,-20,-2,-5,-22,-6,-7
7063514112,-4,12,8,-5,-2,16,6,3
7063514112,9,0,0,6,-3,-7,-2,-4
7063527742,-26,-14,-11,-15,-3,-9,5,-6
7063527742,11,9,-2,-1,-6,-4,-9,2
7063535252,-4,-10,26,6,-4,1,2,4
7063535252,-10,-37,-52,-32,-10,-11,-5,-6
7063550143,22,20,13,20,13,1,3,5
7063550143,-8,17,23,26,20,12,4,3
7063558480,-5,-1,-25,-5,-11,-14,-4,-6
7063558480,1,-16,-1,-2,-1,7,4,0
7063573405,-7,-12,-4,-10,-10,-10,-8,-2
7063573405,-37,-41,-10,-13,-8,-6,-8,-13
7063574077,27,99,23,8,-2,-2,3,7
7063574077,-21,-108,4,30,1,-2,-3,-7
7063587668,8,28,-20,-22,1,1,-1,2
7063587668,19,88,39,19,2,-1,6,11
7063595259,-27,-60,-37,5,8,5,-2,-5
7063595259,45,76,21,-34,-18,-4,2,10
7063610191,-9,20,2,39,24,2,-2,-11
7063610191,-4,-75,-28,-27,-11,0,0,-1
7063618390,-7,-40,-7,14,7,0,-2,-4
7063618390,-16,120,24,4,1,3,0,-4
7063633404,18,34,28,14,-18,-8,-3,3
7063633404,-4,1,-8,-4,-4,-3,-2,-2
7063634098,24,27,-21,-11,16,8,3,5
7063634098,-7,-36,-9,-2,-4,2,1,-3
7063647763,8,33,3,-8,1,-4,-3,-1
7063647763,-27,-44,-17,16,-1,-4,-2,-7
7063655256,7,10,20,-9,-29,-12,-6,9
7063655256,9,65,16,36,27,16,12,-1
7063670277,-19,-68,-18,-11,15,8,0,-1
7063670277,6,5,-6,-24,-14,-2,-4,0
7063678320,-1,-23,-5,-6,-17,-15,-9,-9
7063678320,6,-9,-8,-8,-13,7,-2,1
7063693460,2,-16,6,30,6,2,10,4
7063693460,11,25,23,12,29,6,2,3
7063694075,-28,6,0,-16,9,3,5,-5
7063694075,0,-22,-13,-9,-13,-15,-16,2
7063707783,-5,-14,-6,-20,-15,-3,-16,-6
7063707783,1,-8,-7,-38,-34,-16,-2,-3
7063715297,5,-3,5,19,12,22,7,-5
7063715297,1,-11,1,-20,8,-5,0,0
7063730289,-5,-23,-19,-17,-6,-12,0,1
7063730289,6,9,-9,-15,-9,-13,-1,0
7063738376,7,-11,-10,13,1,7,-3,-1
7063738376,-8,8,-9,-11,-15,-7,6,-3
7063753354,8,2,8,5,15,7,-7,0
7063753354,-3,-3,6,-1,4,-5,17,0
7063754141,-6,0,-6,13,5,2,7,1
7063754141,-8,-12,-3,-7,-5,-10,-10,-6
7063775971,0,-3,-2,-12,-7,3,6,0
7063775971,2,32,7,9,11,9,-3,3
7063776616,7,1,15,5,4,10,-1,2
7063776616,-14,-12,11,11,2,-4,8,-7
7063790344,4,0,-22,-34,-12,-10,0,0
7063790344,-3,-8,-3,11,4,2,1,-2
7063798444,-11,-5,0,-36,-2,-8,-13,-1
7063798444,-6,-13,-10,8,-6,6,2,-4
7063813439,13,18,2,5,-6,-8,-4,-6
7063813439,-1,11,-3,11,10,11,-8,-2
7063814113,-3,-7,-7,-4,-10,-14,3,-7
7063814113,-14,-25,7,3,7,5,11,4
7063827800,7,-10,1,4,-8,-11,-3,-2
7063827800,4,-12,-3,3,0,11,9,0
7063835330,3,-8,6,4,-1,0,9,-2
7063835330,-1,-15,-7,-3,4,16,-18,0
7063850186,-4,-7,-3,-7,-4,-8,22,-1
7063850186,7,-2,3,4,-2,-4,-13,0
7063858457,-4,5,5,5,2,-7,9,-1
7063858457,-5,10,-3,-3,2,-11,-44,-4
7063873440,11,-1,3,3,-4,11,48,11
7063873440,-4,-9,-1,0,-2,-5,-17,1
7063874144,-5,-29,-10,-3,-3,-3,-8,-5
7063874144,22,21,0,-5,-3,-7,13,1
7063887729,-23,-20,1,2,-6,-5,-29,-5
7063887729,-2,14,3,-2,-3,-4,12,6
7063895235,16,15,-5,-1,5,12,7,1
7063895235,-17,19,0,1,-6,-4,0,-5
7063910256,-9,-63,-19,-12,-2,0,-17,-11
7063910256,8,3,8,16,-1,1,4,6
7063918374,5,66,6,-4,-2,-18,-15,6
7063918374,7,-68,-27,-26,-8,1,17,-7
7063933315,-21,101,25,13,3,4,-6,1
7063933315,-11,-43,-22,-9,-6,-5,-7,-6
7063934139,-6,25,18,-4,-7,-3,8,0
7063934139,10,-13,7,18,31,18,6,10
7063947733,-7,-45,-22,7,-5,0,5,1
7063947733,25,97,59,9,6,-2,-1,6
7063955224,-23,-99,-94,-91,-27,-8,-9,-14
7063955224,-16,13,15,47,11,-4,4,0
7063970264,42,97,66,68,15,0,-5,12
7063970264,-50,-33,-38,-57,-18,-6,-3,-6
7063978467,23,-73,-3,-17,-12,-2,-7,0
7063978467,1,79,39,55,0,5,-10,-1
7063993432,8,-55,-88,-75,5,-3,0,-2
7063993432,24,39,33,25,0,0,0,4
7063994060,-1,78,58,84,5,3,9,1
7063994060,-26,-12,-66,-66,-10,-7,-12,-10
7064007681,10,-2,20,-7,-2,-1,-8,4
7064007681,-17,-10,-14,14,11,10,6,0
7064015233,18,22,2,-6,-8,-12,-8,0
7064015233,-6,18,34,5,-8,-12,-7,-5
7064030275,-22,-16,10,20,-14,16,-5,-7
7064030275,12,-22,-33,-14,7,-6,1,-3
7064038413,-2,27,17,12,9,0,3,2
7064038413,-21,2,10,29,-12,12,-11,0
7064053424,4,5,-22,-48,-1,-17,-9,-6
7064053424,-7,-2,-13,-1,-25,-4,-17,-9
7064054094,-8,-8,9,31,11,8,10,2
7064054094,16,-19,0,-21,2,-17,2,1
7064067737,1,-16,-6,12,6,9,40,8
7064067737,23,-10,9,19,31,-5,-11,-3
7064075254,-33,-20,-11,-48,3,8,1,-2
7064075254,4,-31,-14,-20,-37,-17,0,-5
7064090290,-9,0,17,-4,-1,0,-8,-9
7064090290,4,-7,-8,13,11,-2,6,3
7064098443,-3,-12,-4,-8,-1,5,-3,-6
7064098443,1,-10,1,-34,4,12,10,2
7064113452,-12,-6,5,10,6,0,-13,-5
7064113452,-11,-14,-21,-19,-22,-14,-5,-7
7064114120,0,4,16,68,-3,2,-4,1
7064114120,8,-1,-34,-47,9,2,2,0
7064127811,-1,24,1,18,-11,-9,-11,-3
7064127811,-11,1,-15,-44,3,10,6,-5
7064135191,3,18,5,25,-1,-3,-3,2
7064135191,11,0,-3,29,1,-2,-3,-2
7064150232,10,45,7,-16,4,0,4,2
7064150232,-18,-46,2,13,5,2,1,-2
7064158443,-5,-13,-20,-30,-13,-7,-8,-3
7064158443,17,0,8,16,2,-17,-2,4
7064172789,-4,-21,-6,2,8,14,-4,-2
7064172789,1,11,23,24,-2,8,5,4
7064180955,4,2,-3,-12,-2,-6,-8,1
7064180955,-8,-18,-14,-12,5,4,6,-3
7064187753,-3,-4,3,7,-8,-6,3,1
7064187753,-5,4,-6,-6,-7,-18,-8,-4
7064195202,-1,-3,-9,-7,7,25,9,-1
7064195202,6,14,9,11,5,6,10,-1
7064210186,-6,-9,1,-1,-5,-5,12,5
7064210186,10,13,5,1,-2,-12,0,2
7064218381,10,3,-10,-10,-1,4,-14,-8
7064218381,6,7,0,2,1,17,-3,5
7064232759,4,-13,-4,-7,-5,-2,24,0
7064232759,-45,-9,-3,-5,-3,9,-16,-3
7064240868,1,-5,2,6,2,-18,1,-1
7064240868,-3,4,6,-2,-6,-3,-12,-2
7064247736,18,-4,0,-1,1,1,-15,1
7064247736,14,14,-1,6,1,2,5,1
7064255177,-8,2,6,-3,-1,-3,-11,-1
7064255177,9,-1,2,-1,1,0,-2,2
7064270270,-10,2,-7,-5,-1,-3,0,-10
7064270270,-5,-2,-1,3,-2,5,24,6
7064278423,-1,-9,-1,-2,1,-3,7,3
7064278423,7,3,1,-1,0,0,-2,0
7064292750,-2,2,2,5,-4,-6,-7,-1
7064292750,0,-13,1,-5,-7,2,-13,-4
7064300941,4,8,-3,-2,1,-4,7,-1
7064300941,-8,0,5,1,1,-1,10,3
7064307722,-9,-13,-3,5,-4,-5,-16,-5
7064307722,12,12,-2,-10,1,2,0,-3
7064315248,11,-3,4,-1,1,2,0,5
7064315248,-22,-12,3,25,-2,-5,-6,-7
7064330257,-25,-39,-28,-23,3,4,-7,-6
7064330257,3,16,-3,4,-5,0,-4,0
7064338388,-12,-17,-4,-2,3,-5,0,-3
7064338388,21,103,17,-44,-13,-5,0,4
7064352734,4,-102,-31,0,-5,-3,-7,0
7064352734,14,44,20,8,-2,-6,1,-1
7064360951,-33,-47,-15,-4,-5,-3,-6,-8
7064360951,-14,17,-2,-3,-5,0,-4,-7
7064375820,-6,53,10,-3,3,4,1,1
7064375820,25,2,2,4,1,-1,-2,5
7064376686,17,31,14,4,5,6,2,6
7064376686,-10,-20,-11,-8,3,5,5,0
7064390224,8,-2,9,-15,-13,-4,-3,-4
7064390224,12,19,-13,-1,-5,7,1,3
7064398347,-11,36,12,17,6,-15,-5,2
7064398347,-13,-49,-7,2,8,2,-3,-4
7064412723,20,30,6,12,-3,4,7,2
7064412723,-15,9,6,2,-4,-9,5,-7
7064421638,5,3,-10,-9,-15,3,-21,-9
7064421638,-9,-2,-6,-9,9,-5,9,5
7064435216,0,23,10,9,-1,8,4,1
7064435216,7,-10,-13,-24,-3,5,2,4
7064444115,-10,-11,-4,-5,-11,12,9,-11
7064444115,34,-3,13,60,11,-11,36,12
7064450222,-26,18,7,6,13,-6,-13,-3
7064450222,-7,-31,-11,1,-7,-9,-7,-5
7064459141,11,-9,-3,-7,-10,-10,3,4
7064459141,-2,-8,0,-16,-29,-7,-24,-9
7064472718,8,-3,12,20,12,0,-1,0
7064472718,-10,-28,-8,-1,16,16,10,-1
7064481619,9,6,-2,31,-6,-14,-9,1
7064481619,1,-5,-18,-66,-19,-3,-3,-4
7064495202,-10,-3,9,4,10,-11,-12,-6
7064495202,-2,10,-6,1,1,-1,-7,3
7064504096,11,9,3,1,8,3,7,-2
7064504096,-16,-23,-8,11,0,2,-4,3
7064510223,-25,-7,-15,-23,-11,-7,-2,-16
7064510223,9,4,11,7,1,-4,-2,5
7064519106,6,6,-9,0,11,19,-11,3
7064519106,19,6,10,16,4,-8,0,1
7064532768,11,33,-3,-7,-6,2,12,9
7064532768,-17,-28,-4,0,-3,-4,-7,-9
7064549094,16,3,-5,-12,3,-11,33,8
7064549094,-63,-15,-6,-9,0,10,-12,-12
7064555224,-9,-2,-4,4,-7,-7,-14,-5
7064555224,1,5,6,-4,4,-3,0,-3
7064564095,7,18,8,-7,-6,-19,4,-8
7064564095,26,16,-5,2,-1,12,14,3
7064570138,-5,-1,-11,-3,-1,2,3,3
7064570138,-9,3,3,-3,-7,3,13,-11
7064579151,-19,-37,-13,-10,6,-2,-29,-4
7064579151,6,-13,-1,7,-3,-17,10,4
7064592637,10,-17,3,-3,-4,-13,-5,2
7064592637,5,-8,3,-3,1,3,10,4
7064601625,-9,4,3,5,8,41,10,1
7064601625,2,1,1,-1,1,-6,-7,-4
7064615246,12,8,4,3,3,8,-7,7
7064615246,-3,-1,-5,0,-8,-28,-7,1
7064624088,-7,-10,5,4,4,-5,-2,-5
7064624088,-16,-13,-2,0,-3,2,-14,-1
7064630209,-5,-13,2,-1,0,2,11,-2
7064630209,22,0,-1,0,-5,-2,-11,-3
7064639116,-17,-18,-1,-4,2,-1,4,4
7064639116,31,-12,0,1,2,7,-6,-4
7064652850,-16,29,4,4,-6,-7,0,2
7064652850,-27,-39,8,6,1,-12,-4,-3
7064661581,55,95,-4,-16,-3,15,1,12
7064661581,-46,27,-2,7,2,-9,-8,-11
7064675234,24,7,-22,-31,-2,7,7,4
7064675234,11,45,2,10,2,10,-1,-1
7064684110,-33,55,4,-1,-5,-15,-8,-9
7064684110,-13,-51,27,9,-12,-3,-6,-4
7064690172,46,-19,13,35,-3,-5,1,11
7064690172,-47,92,-38,-20,33,21,32,-5
7064699068,-42,-63,-21,-14,-5,-7,-35,-17
7064699068,39,116,20,7,0,7,-2,-1
7064712612,-22,-118,-7,32,-5,-2,2,8
7064712612,21,-53,12,-10,-18,-17,-18,-7
7064721588,-19,-17,8,21,-6,-7,10,7
7064721588,21,66,-17,-56,6,9,7,8
7064735212,-53,-60,-14,20,-1,-1,-11,-25
7064735212,38,83,47,4,6,12,4,13
7064744065,16,-32,-46,-33,16,10,7,8
7064744065,7,-32,-2,2,-8,-5,-3,1
7064750258,23,43,8,-48,-11,-10,0,9
7064750258,-1,-33,12,54,-14,0,-8,-4
7064759073,-30,-28,9,-6,12,-6,-5,-11
7064759073,15,-5,3,7,0,0,19,12
7064772750,-7,9,-10,-10,5,4,-32,-12
7064772750,-24,-32,-1,15,1,-6,10,-2
7064781586,6,42,10,-12,-15,-7,1,-1
7064781586,-9,-25,-16,6,-5,-12,-41,-6
7064795262,-2,56,15,25,5,5,23,-3
7064795262,14,15,-11,-30,7,6,14,5
7064804091,23,4,7,30,45,-1,2,5
7064804091,-26,-20,-21,-7,-15,-3,6,-8
7064810138,-1,-6,-3,-52,-54,-36,7,-16
7064810138,24,-28,-5,23,48,45,-26,23
7064825300,-11,-45,9,27,-16,6,8,-1
7064825300,2,-27,9,19,24,-1,-1,0
7064832731,-21,-1,-13,-10,-6,0,3,-7
7064832731,-6,-38,-15,-27,-24,-24,-13,-9
7064841583,4,-9,-2,-15,-3,13,6,3
7064841583,-12,-25,5,2,-9,-8,-7,-9
7064855237,23,13,-5,5,2,16,0,8
7064855237,-35,-30,-16,-33,-16,-5,-14,-11
7064864082,6,-3,1,3,-5,-2,-9,1
7064864082,-6,3,-14,-17,-9,-6,10,0
7064879056,-8,3,11,-5,15,7,-4,-5
7064879056,8,25,-12,-15,3,7,6,4
7064880571,7,17,14,4,-7,-11,5,-7
7064880571,12,14,-2,-3,14,15,16,4
7064892629,-18,13,0,15,4,-2,-11,1
7064892629,-8,-11,2,-4,-17,-12,-6,-11
7064901602,2,-10,-5,-16,-16,-9,-3,2
7064901602,22,0,0,16,8,-2,-6,-2
7064915152,-27,-16,-5,-12,10,9,5,3
7064915152,14,-11,9,7,-17,-15,-1,0
7064924114,-7,-8,-6,-6,-2,15,-2,-4
7064924114,-2,-10,-2,1,-1,-7,-4,-3
7064939071,36,12,9,8,2,-1,14,8
7064939071,-29,-6,-4,-1,4,0,1,-4
7064940566,9,4,1,6,-8,-12,1,1
7064940566,0,5,-5,-10,-7,-12,-5,-4
7064952706,-3,-3,2,0,9,15,11,1
7064952706,11,1,1,6,-3,6,3,4
7064961585,1,0,-3,-11,-6,-7,-9,-5
7064961585,-18,-10,2,3,-5,-12,11,0
7064975276,5,-1,-1,0,3,8,0,-2
7064975276,4,3,-3,-3,-6,-9,-7,-2
7064984064,8,7,1,4,-2,4,11,1
7064984064,-15,-6,-2,0,-2,9,-4,-2
7064999052,-5,-1,-2,4,0,-8,-9,-4
7064999052,2,-5,-3,-5,-4,0,-2,3
7065000571,-1,-7,-2,2,-1,0,3,0
7065000571,-9,0,-5,-2,1,-1,-4,0
7065012635,3,2,-3,-7,-1,0,-8,0
7065012635,6,5,-2,9,2,-2,2,-3
7065021599,-6,-3,4,4,-6,-11,-11,-5
7065021599,13,-4,-14,-21,1,8,3,5
7065035907,-14,1,-1,13,10,-4,0,-1
7065035907,13,1,0,5,-5,-2,-1,1
7065042731,-34,0,6,2,-5,-4,-5,-6
7065042731,0,-4,4,4,5,7,0,2
7065050208,15,26,4,3,-3,-7,-6,1
7065050208,2,-29,-18,-11,-3,-7,-4,-3
7065059116,-7,-14,-2,-9,-7,-4,-7,-5
7065059116,1,-10,4,5,2,-1,-4,-1
7065072733,6,35,8,-15,-2,-2,-1,0
7065072733,-7,11,5,16,7,2,0,-1
7065081566,-4,-8,5,10,-5,1,2,0
7065081566,-3,-32,3,2,2,1,-3,-1
7065095907,13,-22,-20,-25,-13,-8,-5,4
7065095907,-6,8,17,15,7,6,3,-7
7065102582,2,-33,-15,-23,4,-2,-2,4
7065102582,12,10,0,7,-6,2,3,4
7065119065,-11,-14,7,12,4,2,-1,0
7065119065,-19,-21,-12,-10,-4,-3,-3,-5
7065120548,5,14,13,5,-5,1,-1,-1
7065120548,9,11,-3,9,-1,-3,-4,-3
7065132748,-11,-6,1,-13,0,3,1,-1
7065132748,-6,16,5,16,-2,-1,2,-2
7065141550,11,32,-3,-11,1,-4,4,1
7065141550,-10,16,2,4,3,-6,-9,-3
7065155903,14,19,-1,6,-15,3,-2,-1
7065155903,-29,2,-6,-11,22,11,3,-2
7065162623,21,16,-3,10,4,-13,2,7
7065162623,4,-2,-10,-20,-7,7,0,-4
7065179058,-15,-8,0,9,-10,-2,-4,-4
7065179058,-7,-4,14,6,5,0,3,0
7065180574,32,8,-2,-33,-17,9,3,4
7065180574,-23,9,2,13,16,-3,-2,0
7065192709,-7,-25,-1,10,0,-15,-12,-11
7065192709,-1,-14,-12,-30,-41,-10,4,-2
7065201614,-5,-4,2,-1,-16,-8,-8,-8
7065201614,4,4,5,16,42,12,9,-2
7065215904,-4,6,19,16,-9,3,5,1
7065215904,-7,-25,-25,-15,-4,8,-2,-3
7065222709,0,-8,-8,12,3,-5,-1,1
7065222709,-4,-6,-4,-5,-21,-14,-5,-5
7065230209,0,-15,-22,-34,18,8,0,-1
7065230209,17,10,7,8,2,-10,-2,9
7065239025,-12,-6,4,10,-3,-1,-11,-8
7065239025,-9,-15,-11,-5,-16,-8,-7,-4
7065252594,-3,2,-14,-9,-5,-6,-2,-2
7065252594,14,7,6,1,6,10,0,1
7065261580,-12,-7,1,13,10,0,2,-2
7065261580,-6,4,1,-5,-9,5,5,1
7065275908,6,-2,1,18,7,-6,2,2
7065275908,-8,5,-1,-17,-14,-9,1,-5
7065282716,-2,-3,10,19,19,4,-1,-1
7065282716,-20,2,-6,-16,-6,-4,1,-5
7065299055,12,7,16,-6,1,-2,-1,5
7065299055,0,2,-4,8,4,1,1,-3
7065300545,1,12,2,11,3,6,7,3
7065300545,4,3,4,-4,-7,0,-7,-2
7065312743,1,5,-4,-3,3,4,3,1
7065312743,7,8,7,8,5,-12,-10,3
7065321589,-5,2,-6,-11,-6,-17,2,-11
7065321589,1,-18,-8,-4,0,17,7,11
7065335842,-3,-17,2,7,7,30,-1,5
7065335842,4,-7,2,2,-3,-11,-7,-2
7065342630,-7,-19,-7,-14,-3,-3,27,-6
7065342630,10,-4,-3,4,0,-7,5,-4
7065359060,-15,4,0,1,-3,-4,-41,0
7065359060,-4,-11,-5,-8,-7,1,-2,-2
7065360597,11,7,-4,-6,2,18,-3,7
7065360597,-13,1,2,4,1,-16,21,-7
7065381559,8,-11,2,2,-1,5,-6,0
7065381559,-13,-13,2,-2,6,41,10,-9
7065383039,-17,-14,-1,-4,-2,17,-9,-2
7065383039,27,-12,-1,-1,-6,3,-15,5
7065395891,18,-15,-8,-8,-6,-22,-1,-8
7065395891,22,25,1,-1,-2,-29,-2,10
7065402571,-38,-16,4,17,2,-2,0,-9
7065402571,-7,43,0,-7,-3,17,-5,1
7065419057,-1,-18,-12,4,4,-15,6,-4
7065419057,12,52,21,31,-9,0,-2,0
7065420554,41,57,14,-15,9,-2,-3,17
7065420554,-90,-48,-68,-27,-16,-36,-27,-39
7065432653,26,50,55,18,-9,-8,11,11
7065432653,-22,-89,-38,-15,1,0,-3,-4
7065441528,19,29,47,61,25,18,9,5
7065441528,29,99,-42,-57,-5,8,5,15
7065457264,-29,-62,-23,6,0,6,3,-18
7065457264,-12,4,80,79,-14,-6,-9,-4
7065463352,2,-31,-105,-98,-16,-16,-9,4
7065463352,22,6,38,24,6,8,7,5
7065479590,-6,-26,-4,-2,9,4,0,-1
7065479590,-15,22,-12,-2,-12,-11,-3,1
7065481945,-10,43,17,-1,1,-12,-8,-9
7065481945,17,43,33,34,5,12,24,15
7065492554,2,-67,-50,-48,-17,-8,-27,-10
7065492554,-23,6,-11,-25,-2,-1,4,-4
7065501603,0,38,8,4,-1,0,-6,0
7065501603,-3,-49,-7,-16,-1,-5,-3,-2
7065515879,5,63,38,27,-18,2,14,13
7065515879,27,47,7,-11,15,12,2,4
7065522670,-3,-29,-32,-19,-14,-15,-6,-5
7065522670,-6,14,37,45,-7,12,-6,3
7065539526,-5,32,-22,-26,0,-5,10,0
7065539526,17,7,-17,-28,1,-9,-20,-3
7065541951,11,-3,11,28,19,22,11,5
7065541951,-6,-40,12,6,0,-22,-5,1
7065552526,-1,19,1,-18,-48,-8,-4,-7
7065552526,-1,-28,-17,-13,42,24,14,2
7065561506,2,-39,18,24,21,-11,-4,1
7065561506,7,-39,-5,-17,-23,3,-4,-3
7065575844,-9,-23,-16,-24,19,-6,2,-2
7065575844,-6,-15,4,16,-27,-20,6,-6
7065582616,-7,-32,0,-5,-10,1,-8,-4
7065582616,13,-10,-1,5,18,4,-3,2
7065598998,4,28,-1,-3,-17,-14,1,4
7065598998,-11,-25,-7,-6,19,15,2,-4
7065600576,-6,8,-2,-5,-15,-2,-3,-2
7065600576,3,-11,-2,6,14,0,-6,-1
7065612713,-4,16,2,8,13,5,8,-2
7065612713,3,3,-11,-30,-2,-3,-4,1
7065621549,-5,0,7,15,-4,4,2,0
7065621549,-4,1,11,-1,-7,-5,-4,-2
7065635880,4,0,-7,-10,12,5,7,5
7065635880,-5,-2,4,36,12,2,1,-1
7065642700,-8,-7,-23,-59,-20,-2,1,-1
7065642700,9,0,12,-2,-4,-6,-2,-2
7065658995,2,3,6,23,16,9,6,4
7065658995,10,-1,-11,-19,-17,-1,-8,-1
7065660606,-13,-25,-1,5,-5,-7,-5,-3
7065660606,1,4,3,3,9,-23,-3,-6
7065672735,-7,1,-4,1,3,18,2,1
7065672735,4,5,-8,-10,-8,15,15,7
7065681543,5,5,2,8,3,1,3,-2
7065681543,-11,-11,-9,-8,-4,0,-16,-5
7065695839,21,4,6,4,0,-33,1,1
7065695839,0,11,3,0,5,9,11,5
7065702672,-18,-13,1,-2,-1,7,-8,-1
7065702672,-4,-15,-3,-4,-6,2,0,-3
7065719048,-5,3,4,8,3,2,-6,-3
7065719048,7,-4,-6,-9,-1,-20,-6,-1
7065720514,7,8,1,4,-6,-3,27,5
7065720514,-2,-2,-3,2,3,8,4,-3
7065732684,9,-14,0,6,5,2,-5,4
7065732684,-8,10,4,-3,-7,-10,2,1
7065741637,-4,2,5,3,-3,0,-8,0
7065741637,-4,0,-4,-3,-5,-10,-4,-2
7065755801,-10,3,1,1,5,15,1,-6
7065755801,4,12,3,-1,-3,1,-2,-1
7065762686,17,4,3,3,-4,-8,-8,1
7065762686,16,2,-2,1,3,1,3,1
7065779011,-28,2,-3,-16,0,-3,-9,-6
7065779011,-1,-24,-18,-8,-9,-7,-7,-3
7065780737,-3,17,18,14,8,-1,-1,-3
7065780737,2,-13,-8,6,1,5,4,0
7065792719,16,47,23,5,-7,2,-1,-1
7065792719,6,-22,-24,-25,-8,-4,-2,0
7065801551,-14,-4,-13,-8,-4,-6,-5,-8
7065801551,19,22,12,8,-3,2,-1,3
7065815837,-17,-50,6,23,12,9,7,0
7065815837,-7,14,-11,-15,-5,-6,-5,-3
7065822647,1,22,-8,-28,-7,-4,-6,0
7065822647,-9,-82,-21,6,4,1,-2,-7
7065838978,9,21,-2,-12,-6,-4,-2,3
7065838978,7,12,8,18,1,-2,-5,-7
7065840581,-18,-26,-3,13,4,8,3,-1
7065840581,10,28,-3,-26,-9,1,8,12
7065854010,-24,-37,-5,18,12,3,-3,-6
7065854010,-2,24,12,13,3,0,-2,1
7065861669,8,-20,-6,2,-5,-10,-8,-3
7065861669,-32,21,6,-10,-4,-4,3,-7
7065875879,16,2,-1,0,-4,-8,-1,6
7065875879,-4,5,-10,-15,9,7,-1,-1
7065882724,-4,1,-5,1,-2,-10,-5,-7
7065882724,8,12,8,23,-1,-8,-1,-5
7065899077,6,21,-10,-34,0,7,1,3
7065899077,-15,-11,4,1,5,-3,1,0
7065900539,5,-3,0,11,-13,-5,-4,-3
7065900539,-3,4,-1,-2,9,-1,13,0
7065912616,10,8,8,5,-20,6,-24,-3
7065912616,-17,-30,5,30,21,3,-2,-1
7065921547,0,-11,-16,-40,-5,-7,-4,3
7065921547,-14,2,1,12,-27,-6,-6,-5
7065935869,-4,-14,-9,19,17,20,16,-2
7065935869,13,-1,1,-8,-11,-10,-3,2
7065942660,-7,8,13,-9,-23,-2,-6,-4
7065942660,3,-3,-2,7,31,-3,-9,0
7065959058,3,3,9,14,8,7,7,2
7065959058,0,-4,3,-14,-13,12,6,-2
7065960630,-1,-4,-12,-6,2,-4,3,-2
7065960630,-7,-20,-7,-23,1,-2,-9,-5
7065972703,-10,-19,-13,-8,-14,-20,-4,-5
7065972703,9,-6,3,41,12,-3,-3,0
7065981528,-14,4,-4,-10,-13,9,4,2
7065981528,-1,10,0,-16,2,-9,2,-1
7065995878,-2,17,10,18,2,-4,7,-1
7065995878,-9,-8,-8,-12,-12,-1,-9,-4
7066002604,12,-18,-4,5,4,4,0,4
7066002604,8,8,4,9,1,6,3,2
7066019049,-12,-1,-13,-23,-4,-22,2,-4
7066019049,3,7,2,-5,-9,-1,2,0
7066020595,2,7,1,14,15,-4,2,1
7066020595,12,34,14,5,0,15,7,6
7066032641,1,-7,-6,-5,-1,-2,-2,-1
7066032641,-5,-1,1,-3,0,-3,3,3
7066041652,9,17,9,12,12,2,1,1
7066041652,0,1,-8,-5,-10,-5,-3,2
7066055831,4,8,-4,-7,-5,5,0,4
7066055831,-6,-11,-1,1,11,3,8,-7
7066062540,1,-20,9,3,-3,9,-15,4
7066062540,-5,-22,-6,4,12,0,1,-5
7066078331,0,-7,-7,-7,-4,12,-16,-4
7066078331,-2,-1,-3,-12,-12,-8,18,4
7066085058,-4,-1,3,2,1,-10,-1,-3
7066085058,-2,5,-3,-5,-6,5,-2,1
7066092564,-14,-10,-2,-1,2,4,-3,-6
7066092564,29,10,-1,-8,-6,-9,8,2
7066101538,-2,10,1,3,7,10,-3,-4
7066101538,-27,-31,-3,-4,-10,-11,-7,2
7066115916,4,0,5,2,4,-8,11,-3
7066115916,-1,-14,-3,-4,-5,-17,-19,0
7066122602,5,-5,0,0,3,14,25,0
7066122602,-7,-16,-4,2,0,2,0,-3
7066138232,2,-1,0,-1,-2,1,-7,1
7066138232,5,8,3,-4,-3,-11,-5,-1
7066145188,12,15,-3,4,4,-5,-2,1
7066145188,-3,9,-5,-5,-3,6,-4,-2
7066152634,1,8,1,0,-1,-6,5,-2
7066152634,13,8,5,2,-3,4,-5,-2
7066161516,-15,3,-3,-2,0,-4,1,0
7066161516,-10,4,6,-3,-8,3,0,-3
7066175754,11,17,2,21,7,-5,-4,0
7066175754,3,6,-10,2,9,3,-4,-1
7066182664,0,2,5,-13,-10,-3,-4,-1
7066182664,10,-4,-5,-11,0,0,1,4
7066198387,-18,-21,-7,13,18,-4,-6,-11
7066198387,-19,17,-12,-26,-14,4,-4,-5
7066213308,8,-77,14,23,-2,-6,2,8
7066213308,21,88,14,14,3,-1,-4,-5
7066214020,33,-51,18,37,-5,4,4,5
7066214020,-22,76,-31,-21,12,5,0,0
7066221548,-26,4,-11,-10,0,-6,16,-2
7066221548,-30,-63,-20,-38,-9,-4,-30,-12
7066235858,-11,39,-12,0,-3,-4,-1,-8
7066235858,29,14,36,34,2,4,6,11
7066242581,-15,2,-28,-42,-10,-4,-6,-6
7066242581,53,16,4,6,-13,-15,2,8
7066258367,-84,18,0,-2,15,11,8,-3
7066258367,1,-68,-9,1,-2,5,-5,-5
7066265160,19,79,14,9,7,5,-3,-2
7066265160,7,-15,1,8,0,-6,-1,4
7066281510,22,1,1,-19,-28,-6,-6,2
7066281510,-6,3,-2,-7,-10,4,-7,3
7066282994,3,2,-1,19,9,-10,0,0
7066282994,-2,6,-6,-6,10,29,8,-4
7066295821,4,10,7,-9,14,-15,-7,-2
7066295821,-14,3,-9,-11,-18,11,34,2
7066302528,-1,-23,5,6,-13,-15,-12,-7
7066302528,-24,-8,-4,-12,-18,6,2,3
7066318324,4,-7,-8,-21,16,-1,8,-2
7066318324,8,-22,16,13,0,-3,-14,-8
7066325210,3,-19,-14,0,13,-2,-7,-1
7066325210,-13,-23,-6,6,-27,-25,2,-8
7066341428,8,-31,1,23,-4,-3,-12,-1
7066341428,-4,-20,-8,-40,4,0,-3,-2
7066342965,1,-5,-6,11,8,6,2,0
7066342965,2,8,9,2,6,3,-1,0
7066355725,-3,-12,-16,-18,-15,-5,-1,1
7066355725,-1,-2,-5,8,-7,-8,-13,-6
7066362659,-7,-2,14,-16,-4,4,6,1
7066362659,9,-10,-7,21,19,2,4,2
7066378264,1,-4,0,-8,-11,-13,-8,-2
7066378264,-5,-7,2,-4,-1,11,7,2
7066385159,7,4,-7,1,5,3,1,2
7066385159,1,23,12,16,21,16,10,5
7066401420,6,8,6,3,-1,5,3,4
7066401420,-10,-11,-2,0,-5,-12,-13,-7
7066403039,0,1,-3,1,-6,-3,-1,0
7066403039,10,-5,-9,-20,-4,-3,-5,-2
7066415178,-10,10,4,-5,-7,-12,-4,-5
7066415178,5,15,19,21,7,3,10,2
7066423997,5,6,-9,-16,-7,-1,-9,-7
7066423997,0,10,6,12,-2,-1,8,6
7066438349,2,-10,-12,-17,-9,-5,-3,1
7066438349,-5,-9,-5,-2,0,-6,-4,-7
7066445185,-2,-3,5,5,-1,-1,1,-3
7066445185,-3,-8,-1,-3,3,-12,-28,-1
7066461504,10,10,1,-5,1,14,40,6
7066461504,-18,3,4,4,3,14,-17,-4
7066462986,4,4,-3,-1,-6,2,18,-9
7066462986,1,4,4,-4,1,-8,-38,3
7066475176,-8,-18,-13,-2,1,0,-26,0
7066475176,-1,-9,-2,0,-4,-1,1,-1
7066484097,8,0,1,-3,-2,-1,-7,-7
7066484097,-16,-2,-2,0,2,-7,12,-4
7066498329,8,-16,1,-2,-4,14,13,4
7066498329,-5,-12,-2,1,2,-12,-5,3
7066505159,4,-2,2,3,3,7,-14,1
7066505159,6,1,-2,-3,-3,13,17,-2
7066521552,-5,5,2,-1,-1,-1,-7,-7
7066521552,0,-4,-3,-2,-5,-16,10,-1
7066522990,0,2,3,5,2,0,5,7
7066522990,6,-9,-4,-2,-3,3,-1,-3
7066535118,6,10,0,-2,2,2,1,2
7066535118,1,-1,-1,-1,-3,-5,-13,-4
7066544001,-24,-10,6,4,-7,-11,-7,-3
7066544001,40,6,-1,-8,0,4,9,4
7066558353,-31,16,-6,-4,9,6,1,0
7066558353,7,-45,2,0,-2,-3,2,1
7066565142,-12,41,5,25,1,0,-8,-1
7066565142,-37,-5,-37,-37,-4,-3,4,-7
7066581472,31,62,21,7,-10,-9,-2,4
7066581472,6,16,-15,0,8,2,-4,-2
7066582971,4,-12,23,25,-4,4,3,1
7066582971,-7,-39,-12,-23,-8,-10,-10,-14
7066595190,-2,-4,-7,-11,-14,-3,-4,4
7066595190,-23,23,-28,-30,-5,-1,1,-2
7066603998,-8,-68,-11,-3,-2,-1,-2,-2
7066603998,8,67,26,24,5,2,9,4
7066618293,-9,-99,-5,-7,-3,-3,19,2
7066618293,2,32,13,9,-4,-6,-37,-9
7066625186,1,8,-2,10,6,5,2,-6
7066625186,-2,41,10,2,-2,0,-1,0
7066641521,6,-98,-23,-4,2,0,1,3
7066641521,4,-1,8,-2,-4,-8,7,4
7066643016,3,-7,-17,-22,-8,7,0,6
7066643016,-28,-15,8,25,11,1,6,-4
7066655024,5,34,-1,-7,-5,-7,-18,-3
7066655024,5,21,13,-9,-27,-14,2,1
7066664021,11,23,-9,11,32,9,-3,0
7066664021,2,-7,0,3,-5,-16,6,2
7066678363,-3,42,14,9,17,32,19,4
7066678363,-11,-24,-9,3,15,-3,-19,-4
7066685137,-8,-1,17,-11,-25,-7,-8,-6
7066685137,3,-41,-5,-2,2,-12,-7,-2
7066701502,-1,3,-9,7,-6,-15,-6,-7
7066701502,-7,-28,2,5,1,12,11,1
7066702987,4,-10,-4,11,32,19,12,1
7066702987,7,-12,-11,-27,-6,2,3,8
7066715083,8,4,-4,5,15,-11,-17,-9
7066715083,8,2,-7,-7,1,-2,7,3
7066723987,-10,-6,-13,-26,-32,-3,-5,-4
7066723987,1,-5,-5,26,11,-4,2,-1
7066738339,5,13,0,2,-21,-7,-7,0
7066738339,-6,-20,5,4,9,9,9,-2
7066745192,5,2,5,-21,14,0,2,2
7066745192,-18,-12,-3,24,-8,1,-6,-4
7066768985,12,8,-10,3,-12,-15,-12,0
7066768985,-16,9,12,11,5,0,0,-9
7066770492,-2,0,14,12,-9,-3,-1,1
7066770492,0,-9,-4,-30,-1,6,-2,-4
7066775083,1,22,-3,-22,-2,-6,-3,-2
7066775083,6,7,-5,-1,-4,-8,0,0
7066784006,11,28,13,11,-8,-9,-3,3
7066784006,6,-18,-19,-17,3,9,-2,-3
7066798318,-37,-9,4,18,8,10,2,-6
7066798318,10,4,2,-3,-6,-3,0,3
7066805118,-6,-5,6,3,13,5,5,0
7066805118,-4,12,8,4,-12,-10,-3,-5
7066821419,4,15,3,-11,1,10,2,1
7066821419,13,4,0,0,3,-5,8,4
7066822964,3,0,-11,-8,-3,5,-28,0
7066822964,4,12,4,3,1,22,13,-1
7066835163,-9,-3,13,1,-1,-12,2,-11
7066835163,-5,7,-3,9,6,7,-2,12
7066843982,-6,0,-7,-9,-7,-13,-9,-3
7066843982,8,3,-1,-5,-7,-7,-18,0
7066858322,0,-8,2,1,5,7,14,-4
7066858322,13,-14,-2,1,-3,-9,-25,3
7066865064,-4,-18,-11,-11,-2,-3,4,0
7066865064,-4,-13,7,1,-1,-5,-3,-3
7066881485,-5,-5,1,1,1,0,3,0
7066881485,6,-7,-2,-4,-4,-7,-2,-8
7066883044,8,-3,-6,-6,-8,-11,-7,3
7066883044,-29,4,6,9,3,-4,3,-3
7066895111,19,28,0,0,0,2,-2,3
7066895111,-23,-54,-15,-9,-4,6,0,-7
7066903996,5,4,-1,-2,-2,-6,9,2
7066903996,11,-20,3,-4,-5,4,3,1
7066918300,-13,3,0,3,-2,-4,-10,-3
7066918300,-2,7,-1,-12,-5,2,6,-2
7066925135,-2,17,-3,-2,-4,1,2,-4
7066925135,-1,-91,-3,12,5,0,-2,-2
7066941491,-13,6,5,4,4,5,-4,0
7066941491,-7,-9,-28,-16,3,5,8,-5
7066942995,21,-1,3,2,-5,-9,-4,-1
7066942995,20,4,4,7,-7,-2,-4,4
7066955132,-22,-17,-15,-3,-6,-11,-5,-4
7066955132,-16,47,15,-39,29,-5,-1,-8
7066963984,1,-49,-30,9,-54,12,24,1
7066963984,-14,-6,-12,-9,27,3,-19,-2
7066978291,30,-27,13,1,14,12,5,15
7066978291,-33,0,29,4,-23,-22,-6,-9
7066985133,-14,15,-41,-14,22,0,0,-2
7066985133,5,66,11,-9,-21,9,6,0
7067000815,23,3,-11,-23,-21,-12,-2,0
7067000815,23,11,39,79,35,40,39,24
7067007625,-4,-73,-10,-24,13,-3,-17,1
7067007625,-20,39,0,-1,3,-26,-4,-17
7067015145,-17,19,-6,-16,2,-1,-26,-2
7067015145,21,11,0,-8,-45,-16,3,-9
7067023963,-19,13,21,39,36,4,-6,0
7067023963,10,23,-13,-17,14,-8,22,9
7067038262,9,14,9,6,-17,9,3,9
7067038262,-3,8,-15,-7,15,-30,-32,-9
7067045139,-4,23,4,-24,-36,14,38,-9
7067045139,-1,-11,0,10,26,-5,-58,-9
7067068288,2,0,7,44,18,10,16,0
7067068288,8,-11,-17,-18,-29,-12,1,6
7067069003,-17,-14,8,-9,-30,-5,5,-4
7067069003,14,-11,8,8,17,29,24,16
7067083309,2,-17,4,22,19,-17,3,-1
7067083309,-8,-14,-6,32,-9,10,-2,1
7067083992,-1,5,8,2,-11,-13,-8,-8
7067083992,1,-9,-9,-5,3,6,14,2
7067099024,-10,-16,-14,-66,-66,5,-14,-7
7067099024,1,-12,-15,9,24,2,0,-2
7067105118,2,19,3,-6,-13,-9,-11,-4
7067105118,4,7,6,13,-7,0,-2,6
7067120143,6,15,0,-4,9,-14,-2,-3
7067120143,-12,-14,2,-14,-13,0,-3,-10
7067127697,7,13,12,32,21,6,-1,8
7067127697,-2,4,-12,-20,6,9,8,0
7067143253,-3,-9,2,12,10,1,3,-6
7067143253,9,1,1,-11,0,1,3,7
7067143967,-8,-3,-1,10,4,12,-12,-5
7067143967,-5,-1,4,-4,-6,-19,-1,-6
7067158966,-2,-9,-4,10,-10,0,3,0
7067158966,5,2,2,5,21,16,2,8
7067165127,10,14,-1,-10,18,-26,-17,-8
7067165127,-10,-7,4,-8,-23,14,13,-3
7067180121,-12,-3,-4,-6,4,-3,1,-4
7067180121,9,5,-15,-3,11,5,-1,1
7067187608,-2,-1,-1,-12,-6,-8,0,3
7067187608,2,3,0,-3,-27,-5,-6,-1
7067203314,1,8,3,11,22,-2,-1,-1
7067203314,-6,1,1,-5,-7,-2,2,-4
7067203926,-1,6,2,-10,-4,2,6,2
7067203926,0,-4,-4,8,0,0,-11,-4
7067218988,-5,0,-2,-5,7,4,1,-3
7067218988,12,6,0,-6,-11,-5,-7,-1
7067225097,-3,1,2,-1,7,5,9,-5
7067225097,-17,-5,-4,-2,-6,-14,-27,2
7067240130,8,-4,-1,-7,-6,-3,7,-1
7067240130,3,1,-3,-2,-1,5,-7,0
7067247548,10,3,2,2,5,-19,5,3
7067247548,-8,10,2,0,-3,29,10,-8
7067263302,4,2,-1,-3,-1,-2,-4,-1
7067263302,-3,-4,2,2,0,-3,-18,0
7067263955,-24,-9,-7,-6,5,0,-7,-4
7067263955,-6,-14,-2,-3,-11,-23,7,2
7067285802,4,-3,-4,-3,1,4,2,-2
7067285802,13,3,2,0,-4,3,8,2
7067286466,-8,8,0,-3,6,8,-2,3
7067286466,0,-8,-5,-1,-2,-6,2,-4
7067300103,11,4,3,3,2,4,0,-1
7067300103,-2,3,0,1,-4,-4,-2,-2
7067307614,-10,5,1,-3,2,3,-2,-1
7067307614,17,7,-2,-1,-7,-8,0,1
7067324687,-15,-37,-11,-12,-3,-3,-7,0
7067324687,-14,-5,-6,-2,-6,-1,0,-5
7067325606,16,14,5,-9,-1,2,0,-1
7067325606,3,55,5,16,10,5,9,6
7067338989,-6,-59,-4,17,4,-2,-7,-4
7067338989,0,5,9,15,0,2,-1,-1
7067345028,-3,-18,-26,-45,-9,-1,-3,-4
7067345028,11,-9,6,25,15,-1,3,6
7067360103,-11,60,-15,-32,-12,-6,8,-3
7067360103,-7,29,12,34,10,4,-8,-3
7067367615,6,-71,-3,9,-5,-6,-6,-1
7067367615,-8,-11,-4,-9,5,9,4,-3
7067383289,-2,-15,3,11,-2,-4,-2,1
7067383289,15,-22,-1,-9,-10,2,11,-1
7067383961,-12,40,7,5,0,-5,-8,8
7067383961,-10,-18,-15,-10,-12,-9,-3,-10
7067399015,-28,-22,8,10,8,4,-3,-5
7067399015,7,3,1,-16,9,8,11,12
7067405105,16,8,5,12,-2,-4,-10,-18
7067405105,-14,-8,-1,-9,6,-8,2,6
7067419963,18,31,-3,-9,-32,2,-15,1
7067419963,-2,0,5,2,18,0,-5,-2
7067427601,1,17,2,14,22,19,36,18
7067427601,2,-5,-3,-8,-7,-23,-27,-16
7067443155,7,3,-8,-14,8,-4,-13,-6
7067443155,-7,-1,-6,-33,-29,23,13,5
7067443955,6,-1,7,43,45,5,5,7
7067443955,2,-2,12,13,11,10,15,7
7067459004,-1,-10,-3,11,6,-13,-7,-2
7067459004,-5,-12,-7,-2,-8,-14,-4,-5
7067464961,-4,3,-13,-44,-18,2,-12,-9
7067464961,4,-3,-2,-3,-1,-3,5,2
7067480005,-5,11,-7,-4,-15,-21,-26,-27
7067480005,-6,-5,-3,0,-9,7,-5,-3
7067487522,-5,-15,2,-5,16,-15,-8,-2
7067487522,-2,-2,-9,-11,-31,5,-7,-2
7067503087,5,-1,16,21,27,16,30,12
7067503087,-9,-2,-10,-3,-2,-12,-10,-10
7067503882,0,4,10,-3,-14,-13,-5,-1
7067503882,5,-1,12,14,10,15,4,4
7067518944,-1,-8,-3,-3,-1,-8,-5,1
7067518944,-1,-5,12,2,26,-1,2,-2
7067524986,-22,-12,-5,2,-26,1,0,-3
7067524986,0,16,1,-13,-11,-13,-6,-2
7067539971,8,10,4,18,15,18,9,7
7067539971,16,8,12,1,-3,-9,1,1
7067547542,0,-3,-19,-17,12,3,-5,-1
7067547542,-14,-12,-6,5,-18,-4,5,2
7067563243,-10,-9,-6,-13,2,-3,-7,-9
7067563243,0,4,-2,-4,-8,11,-8,-1
7067563990,12,9,12,16,-3,-8,-1,0
7067563990,0,-5,-9,-16,3,11,10,-1
7067585710,2,0,4,-5,-12,-15,-6,8
7067585710,-5,-6,-9,-3,-1,-15,21,-1
7067586417,10,7,3,3,-13,-25,-39,1
7067586417,-2,-2,-4,5,11,57,37,-1
7067601444,-9,1,0,-7,-6,-10,-1,-8
7067601444,5,9,2,8,-5,0,-28,5
7067607617,7,-2,-5,-4,1,0,31,4
7067607617,-3,-10,-6,-10,-10,-29,-26,-8
7067623238,4,4,2,-3,0,14,41,7
7067623238,12,-2,-8,-7,-2,-2,-13,-10
7067623942,-7,2,6,7,-4,9,3,1
7067623942,-29,-25,-3,-5,-2,-18,-43,-8
7067645667,0,-7,-6,-6,-6,9,0,-2
7067645667,-7,-8,-5,4,5,-17,-4,-1
7067646589,18,-10,2,-3,-10,8,22,8
7067646589,-10,14,6,8,7,-2,10,-2
7067660031,-3,5,3,1,3,-1,-19,-1
7067660031,-12,-11,-2,-3,-4,2,9,-4
7067667585,5,20,5,0,-2,10,9,5
7067667585,10,-32,0,0,1,-17,-24,-4
7067683229,28,8,-8,-7,-1,5,3,11
7067683229,24,94,35,4,-6,-3,5,6
7067683954,-48,-115,-41,-23,-29,-15,-12,-22
7067683954,7,93,-1,35,30,-1,10,5
7067698952,-32,-92,-34,-32,-10,2,-4,-4
7067698952,22,62,50,5,-21,-1,-1,5
7067705106,7,-12,-46,-9,39,20,0,2
7067705106,38,93,48,20,-13,-9,5,5
7067720135,-32,-37,3,-17,-33,-6,-13,-12
7067720135,28,-3,-1,76,83,17,26,21
7067727617,-28,52,4,-21,-33,-14,-23,-18
7067727617,5,-79,-15,-9,-9,-6,1,-12
7067743130,15,59,-1,1,16,8,1,10
7067743130,-15,-75,8,-13,-21,-1,3,6
7067744016,-4,37,13,10,16,5,3,-1
7067744016,-26,-11,-13,-1,-2,0,-6,-13
7067758968,29,55,33,5,-16,-11,-4,3
7067758968,-32,-39,-18,-12,-12,-8,-5,-7
7067765093,5,-13,-4,9,9,5,-4,3
7067765093,3,3,-3,-40,-27,-11,0,-1
7067780074,1,-12,-5,4,8,9,9,6
7067780074,-2,3,-28,-10,-5,-3,-3,0
7067787459,11,13,9,14,6,23,7,0
7067787459,5,3,13,19,30,1,10,11
7067803218,-3,39,-3,1,4,-6,0,-6
7067803218,-20,-8,-40,-40,-58,-28,-23,-14
7067804015,17,32,21,-10,-3,15,5,8
7067804015,8,-15,3,33,34,1,-10,0
7067818990,-1,-22,-9,5,1,-5,-16,-4
7067818990,-11,-20,-5,-17,9,7,4,-7
7067825084,-4,-28,2,8,6,-4,-1,-3
7067825084,3,-19,-10,-20,-19,5,4,3
7067840034,-1,-9,5,3,4,-8,3,-2
7067840034,-9,-13,-5,4,-8,5,-13,-12
7067847576,14,17,6,-3,-7,-18,-2,4
7067847576,-5,-33,-12,-5,-4,6,5,0
7067863255,2,21,6,8,-1,-11,-1,-2
7067863255,-22,-17,-5,2,7,12,4,-6
7067863983,-1,-5,-3,-1,0,-2,-3,-2
7067863983,-1,-10,-6,-13,-9,-3,-5,2
7067879031,2,0,1,0,-8,-3,-3,-2
7067879031,2,15,7,-4,7,2,12,3
7067885125,-4,-1,-6,8,4,-6,-5,-7
7067885125,-18,-15,0,-2,-6,-1,-4,0
7067900034,-3,-27,-11,0,6,0,2,-5
7067900034,-3,0,-2,-8,4,-6,-4,0
7067907547,10,1,1,0,-13,-9,-5,-1
7067907547,12,19,1,-12,-7,0,4,0
7067922453,-27,-7,-6,9,16,12,2,-1
7067922453,-5,-8,0,-3,4,-7,-3,3
7067930068,-3,-3,7,2,-4,11,4,-3
7067930068,5,-6,-11,-9,-5,-1,-3,1
7067938968,4,2,6,-7,-3,-1,-14,-4
7067938968,9,6,-12,-10,-6,7,-13,-3
7067945100,-2,0,7,6,-1,-20,-3,5
7067945100,-9,-5,-5,-8,-7,15,2,-5
7067960106,9,4,-4,4,-2,1,8,1
7067960106,-5,-8,-1,-7,0,-4,-4,-1
7067967591,1,-6,0,8,9,5,1,1
7067967591,0,6,3,3,1,-5,-1,-8
7067982510,2,6,4,-8,-12,-10,-12,6
7067982510,9,-6,-5,-4,-5,8,-11,-2
7067990016,1,1,3,2,2,-6,2,3
7067990016,-21,-17,-1,-4,-1,10,5,-6
7067998933,0,-4,-2,-3,1,-8,-3,-3
7067998933,-2,-3,-1,4,4,1,10,1
7068005113,-1,1,2,0,-9,-3,-4,-1
7068005113,0,0,-8,-12,-6,-14,-16,-4
7068020064,11,4,1,-4,-9,10,3,0
7068020064,-21,-2,0,8,5,0,11,-5
7068027588,-9,-10,-2,4,8,-8,-10,0
7068027588,5,4,1,0,0,14,19,4
7068042580,-10,-1,-4,0,-2,-5,1,-3
7068042580,13,-1,-1,-4,-6,-7,1,0
7068050057,4,5,9,3,-5,5,-1,1
7068050057,-3,5,-9,-10,16,-8,-6,1
7068058968,-1,0,-3,-9,-9,3,1,-1
7068058968,-3,-4,-9,13,15,-1,1,-2
7068065038,-4,-2,-2,1,-4,3,2,-4
7068065038,-1,-2,0,-9,-16,-13,-6,3
7068080068,-1,-4,3,5,11,5,2,-2
7068080068,12,-1,-4,-13,-9,-7,-7,-4
7068087565,-3,1,-6,-11,-6,0,2,5
7068087565,-5,-8,4,3,-1,-2,-1,-3
7068102611,-7,2,3,5,6,0,4,0
7068102611,1,1,1,-3,-4,0,1,0
7068110766,9,5,-2,2,2,6,-4,-5
7068110766,3,4,-4,-4,-12,-12,8,3
7068117619,-13,-7,-1,1,3,10,-1,1
7068117619,1,-6,1,5,2,-2,-4,-6
7068125113,16,6,-3,-4,-2,-4,-2,0
7068125113,-8,2,2,-2,-6,-3,-3,1
7068139983,-17,-5,1,2,5,-3,3,-3
7068139983,-11,-5,-2,9,3,6,1,-1
7068147621,-2,-10,-5,-9,-2,-23,-4,2
7068147621,11,1,0,6,-2,10,3,-5
7068162456,23,10,-3,-5,-3,10,-1,6
7068162456,-14,-3,-8,-13,-9,-4,-4,1
7068170651,-14,-10,1,-4,-8,3,1,-5
7068170651,4,3,-3,-3,1,-9,-7,1
7068185575,3,6,4,-22,-17,-20,-1,-1
7068185575,4,0,9,40,32,21,0,-2
7068186402,-10,-11,-5,-1,-6,-4,0,1
7068186402,-1,-2,0,8,3,0,-4,-1
7068200020,0,0,-1,-2,-6,-1,2,1
7068200020,5,1,-1,-11,-9,-8,-5,-4
7068207559,-5,2,-5,-10,-6,-4,-4,-4
7068207559,-3,4,3,-2,-2,3,-6,-1
7068222469,8,-4,-4,7,4,-5,4,2
7068222469,-6,-2,0,-5,-7,-5,-2,2
7068230741,1,0,6,11,16,11,-2,-2
7068230741,-11,-6,-2,-5,-4,1,10,-3
7068245578,6,4,-1,3,2,-1,-4,-2
7068245578,0,-3,-3,-9,-11,-9,0,0
7068246341,-2,5,-3,-5,-11,-8,-5,-1
7068246341,7,1,1,0,-1,-3,-1,-1
7068260064,-17,-2,4,0,10,6,2,-3
7068260064,-5,0,-2,8,7,11,4,1
7068267546,4,1,-1,1,2,-4,1,-1
7068267546,-12,-5,-3,-4,-4,6,-12,0
7068282547,2,-6,2,14,0,-7,-1,0
7068282547,-12,-5,-5,-17,-9,-9,-1,-2
7068290694,0,0,-3,-12,-12,-5,-1,-1
7068290694,8,4,3,12,5,0,0,1
7068305673,-3,-3,-5,0,5,2,2,-4
7068305673,3,-3,0,-3,2,-2,-12,2
7068306526,-3,-2,-1,3,-3,2,4,-1
7068306526,0,-6,-4,-10,-12,-11,-3,-1
7068320017,2,4,1,2,1,2,-1,1
7068320017,6,5,1,-3,-2,-6,0,0
7068327567,-13,-6,-1,-3,-4,3,0,-2
7068327567,7,9,2,-1,8,1,-1,1
7068342542,-10,-7,-2,6,1,1,-1,1
7068342542,0,-5,0,-2,-3,-3,-1,-3
7068350721,0,-1,-3,-1,0,2,-2,1
7068350721,2,3,-2,-1,0,0,0,0
7068365730,8,3,0,-3,-6,-3,-3,-1
7068365730,-10,4,-6,-9,1,-2,1,-4
7068366447,8,-6,-5,-2,-2,0,-1,3
7068366447,-15,3,2,10,1,-5,-1,-1
