timestamp,emg1,emg2,emg3,emg4,emg5,emg6,emg7,emg8
6929676780,8,15,4,13,27,15,14,5
6929676780,-3,2,-6,-6,-6,-6,-6,-1
6929677775,-2,-4,-5,-7,-7,-5,-3,1
6929677775,-5,-2,1,-1,-2,-2,-3,-6
6929678479,5,5,-4,2,3,4,4,-2
6929678479,-3,-7,1,3,2,0,1,4
6929682050,3,3,-7,-5,-7,-2,3,2
6929682050,0,6,3,3,6,6,7,-1
6929688494,-13,-12,-7,-8,-14,-10,-9,-6
6929688494,4,-3,4,5,5,-1,-2,1
6929697104,-1,5,5,2,2,3,2,0
6929697104,9,1,-4,-3,-2,-3,-2,5
6929704796,4,-2,2,-5,-7,-5,-2,2
6929704796,-6,4,-5,-8,-7,-6,-3,-5
6929718408,-4,-3,0,10,9,5,1,1
6929718408,3,-10,-2,3,3,4,-1,-2
6929729956,-8,-6,-4,-6,-3,-3,0,-2
6929729956,-6,2,-2,-10,-4,-2,-5,0
6929733434,8,-2,7,11,5,2,2,0
6929733434,-2,4,9,6,2,3,5,1
6929748483,-6,-3,-5,-7,-6,-8,-17,-5
6929748483,7,1,1,0,1,5,41,5
6929757062,2,12,2,0,-1,-3,0,-3
6929757062,1,5,-4,0,1,4,-14,2
6929796571,6,-3,0,-5,-4,2,28,1
6929796571,-30,-22,-6,-4,-5,-3,-25,-14
6929797534,14,5,3,3,0,-12,18,10
6929797534,-10,1,-2,-3,-2,4,16,1
6929798243,-2,-7,-3,0,-1,10,11,-11
6929798243,9,-12,-3,0,-2,4,-34,9
6929801332,-11,-4,-1,1,3,-11,36,0
6929801332,13,-5,-2,-1,-5,7,-6,-20
6929808338,-20,-10,4,6,2,-16,-5,-8
6929808338,6,16,1,-1,0,-8,-1,5
6929815747,5,7,-2,-3,-4,41,-9,10
6929815747,2,-2,1,0,1,-11,-1,-6
6929824642,1,10,-4,-6,-2,-5,-8,-1
6929824642,-6,29,7,5,4,-4,-2,-3
6929838170,11,39,8,-1,-3,-7,4,8
6929838170,-24,-47,2,4,4,5,-2,-3
6929847111,-11,-19,-18,-16,-18,-6,-21,-8
6929847111,-3,-48,-4,19,15,-2,20,11
6929853286,0,80,20,-1,-3,-1,-7,-14
6929853286,-6,-6,-8,9,-13,2,5,8
6929868115,17,-36,11,-40,9,-9,-9,6
6929868115,-8,-63,-28,-33,-16,-1,2,-13
6929875663,-32,-52,-19,11,9,-3,-11,-14
6929875663,21,85,33,8,3,-6,-12,2
6929884619,-14,-56,16,1,-1,5,-1,9
6929884619,11,22,-31,-35,6,-1,8,-1
6929898293,5,-31,-32,-46,1,4,-9,0
6929898293,-4,-42,9,-1,-21,-16,-11,-1
6929907131,-1,63,2,33,20,15,9,-5
6929907131,17,-62,16,23,7,13,17,3
6929913261,4,24,0,-2,-13,-16,-14,-3
6929913261,8,-17,-1,5,11,1,7,15
6929928273,3,67,5,1,-19,-9,-9,-9
6929928273,4,-34,-4,-6,-12,-7,5,8
6929935731,-40,-33,2,13,12,10,-19,-17
6929935731,5,31,-17,-10,-13,-12,-12,-14
6929944682,27,44,4,14,14,11,9,14
6929944682,-17,36,0,-12,-13,-5,2,-10
6929967086,7,-28,-3,2,-13,-15,9,4
6929967086,-17,30,4,-5,-3,-1,-43,-2
6929968629,-13,-22,-31,-18,-5,-14,29,1
6929968629,27,38,11,15,15,24,5,8
6929973336,9,-61,17,15,11,19,-9,-2
6929973336,2,-57,-3,12,-14,-4,1,-4
6929988250,-3,3,-15,-19,18,8,-2,6
6929988250,-11,6,1,-8,-21,-25,-7,-4
6929995732,12,3,-11,-42,-43,-25,-13,0
6929995732,-6,19,10,60,38,10,17,1
6930004798,3,22,7,64,23,-4,-11,-1
6930004798,-3,-9,-6,-65,-13,12,9,-3
6930018122,-2,10,-15,-10,7,-3,2,-1
6930018122,0,7,-10,-19,-6,-1,2,-2
6930027130,2,-18,3,-1,-23,-13,-14,-1
6930027130,-9,12,-1,18,6,10,5,-5
6930033103,-3,2,12,46,13,9,8,-1
6930033103,2,-10,-10,-47,1,8,11,4
6930048148,0,-20,1,-4,-1,2,5,-2
6930048148,-4,12,7,7,-10,-13,-7,-3
6930055588,10,25,-9,-31,-9,-6,2,0
6930055588,-22,-20,-12,3,9,6,8,-4
6930064626,-4,-20,-3,-4,-15,7,-4,-3
6930064626,-2,2,-4,9,-1,-7,-6,-6
6930078121,-4,-2,23,7,-11,-5,-1,-3
6930078121,-1,-8,-22,-1,12,-4,-1,-2
6930087093,10,5,23,2,-3,-13,-12,6
6930087093,0,35,4,19,3,2,13,-2
6930093132,-13,-5,26,-1,-1,-8,-10,-14
6930093132,0,7,-3,-8,-2,5,19,10
6930108152,0,3,1,-3,-10,-8,-13,-1
6930108152,4,1,2,14,4,-2,-15,-6
6930115621,0,-22,-19,2,6,-7,15,9
6930115621,1,2,13,-3,-7,-15,-27,-5
6930124604,3,2,2,-6,1,13,43,2
6930124604,-12,-13,-7,-4,2,-3,10,-1
6930138102,6,-1,3,14,14,7,-2,-2
6930138102,-13,-15,-6,-18,-13,-14,-16,-8
6930147125,5,-5,-4,-3,-4,17,47,-4
6930147125,-9,-4,-7,0,1,12,0,-14
6930161245,7,0,-4,1,-2,-35,22,2
6930161245,21,7,8,5,2,33,5,6
6930168134,-6,-7,-5,-5,-2,-18,-16,6
6930168134,1,5,11,7,1,18,-6,-9
6930175619,-16,2,-5,1,0,23,-5,-2
6930175619,7,13,-5,-6,-5,-13,16,1
6930184583,-7,-8,-8,-7,-3,4,-21,2
6930184583,-7,-21,2,0,2,-8,-8,2
6930198122,-5,8,-3,-3,-3,-12,-27,-2
6930198122,4,7,-5,-5,-2,2,-1,-2
6930207096,14,8,-1,-2,1,1,-17,9
6930207096,1,5,3,6,0,-12,6,2
6930221297,2,3,-3,-2,-3,10,-2,-6
6930221297,24,27,24,6,-1,1,5,9
6930228114,-26,-31,-25,-13,-2,-3,0,-8
6930228114,7,16,14,13,2,-5,-7,3
6930244455,-17,-15,-15,0,3,7,-4,-1
6930244455,6,4,-1,-9,-2,1,4,2
6930246095,12,25,20,-4,-11,-10,-20,-3
6930246095,3,-54,-12,-6,3,0,-6,-2
6930258067,-3,4,-17,-2,-6,5,2,8
6930258067,-21,1,-14,1,18,-4,6,-11
6930267091,-4,-8,47,92,9,6,-2,-5
6930267091,14,-24,-63,-76,-10,-12,-7,9
6930281318,0,111,20,-6,3,7,14,-3
6930281318,-31,-46,-3,-3,-7,-6,-14,-1
6930288192,-5,-36,-14,-27,-2,-1,-18,-11
6930288192,17,65,41,34,-3,-2,1,4
6930295720,-4,-59,-6,-15,-3,-9,-13,-10
6930295720,25,63,-10,-2,-11,-3,6,12
6930304631,-5,52,5,1,13,9,8,4
6930304631,-22,0,-9,-5,-15,-13,-9,-8
6930318130,17,1,6,-19,-8,-3,0,3
6930318130,-32,-10,21,14,2,0,2,-4
6930327191,6,22,-15,-10,4,-2,15,4
6930327191,-10,11,-1,3,3,3,-32,-11
6930341389,-4,-34,12,-9,-19,-3,7,1
6930341389,7,10,-18,23,1,-31,-16,4
6930348223,29,8,4,-9,-2,40,-3,4
6930348223,-28,8,5,27,42,-2,41,5
6930355641,19,5,2,49,-20,4,-11,0
6930355641,-2,-19,-12,-54,1,7,10,-3
6930364617,-2,-21,-9,0,16,-5,-3,-4
6930364617,4,1,17,6,-13,-7,-11,0
6930378131,-22,-25,-22,-33,-10,-9,-5,-9
6930378131,-6,-38,17,49,1,7,7,-4
6930387130,-3,-19,-21,-22,-2,-6,-5,-3
6930387130,1,-8,-3,-44,-22,-2,4,0
6930401261,5,-15,0,18,19,1,2,3
6930401261,-3,-2,-4,-14,-3,3,-4,-12
6930408212,-21,-22,2,26,1,-8,4,-7
6930408212,-4,-3,15,-22,-6,-4,-4,0
6930415732,2,6,-19,-31,-7,-5,-3,2
6930415732,0,-11,-2,-23,11,-1,-8,-5
6930424625,-5,-1,2,-2,-10,-6,-7,-4
6930424625,-7,-10,18,1,-15,-10,-3,-4
6930438142,-4,-10,9,23,-10,13,7,0
6930438142,8,7,-6,-34,17,12,7,6
6930447076,2,2,-21,-15,-11,-18,-13,-5
6930447076,3,0,5,31,-6,-14,6,5
6930461425,0,4,2,-19,10,37,4,0
6930461425,3,-6,11,39,-9,1,-15,2
6930468127,-7,-15,-35,-41,-1,-1,12,1
6930468127,2,18,-21,-13,-2,-1,2,-2
6930475761,5,2,7,-1,5,-8,-8,0
6930475761,8,21,15,28,0,0,3,2
6930490570,-14,-11,5,-4,-8,-9,-13,-8
6930490570,6,19,-1,4,2,9,14,6
6930498220,-3,9,-3,13,9,-13,16,0
6930498220,3,4,-10,-17,-18,-11,-29,-9
6930507170,-5,6,11,-5,-6,-7,13,2
6930507170,7,-2,-5,1,0,2,28,-2
6930521388,3,4,4,17,7,11,-59,-10
6930521388,-7,-26,-6,-11,-5,-8,9,5
6930528180,-7,-11,1,3,1,26,31,8
6930528180,10,-18,-4,10,1,-9,-39,-19
6930535753,7,-7,-4,-4,4,3,3,-3
6930535753,-3,7,-4,-5,-2,-14,5,-3
6930550709,-3,6,6,3,-6,3,4,4
6930550709,-9,-4,2,8,9,4,-20,6
6930558258,3,3,2,-3,-1,-8,-3,-4
6930558258,-1,-2,-1,-3,-3,6,24,1
6930567098,-5,0,0,2,-6,-7,-9,-9
6930567098,16,27,5,6,9,12,6,11
6930581394,10,36,12,-3,4,-11,9,3
6930581394,-6,-31,-28,-3,-4,2,-5,-2
6930588154,-20,26,6,17,-1,-8,-12,-3
6930588154,5,12,11,8,-8,1,-1,-7
6930595729,10,-36,-19,-1,-1,-7,8,12
6930595729,6,-15,1,0,12,17,8,-1
6930610736,3,14,-12,-16,2,4,-11,-5
6930610736,-3,30,-3,13,1,-1,-5,3
6930618241,19,52,34,28,-11,-7,3,2
6930618241,-2,18,-14,-19,0,-5,-6,5
6930627147,-22,-84,4,5,-6,-6,-7,-5
6930627147,15,30,-12,-20,10,12,15,6
6930641451,-23,-23,-7,-6,1,-4,-12,4
6930641451,-15,-27,-15,0,-20,-11,-19,-25
6930648233,15,111,23,4,-5,-5,-9,12
6930648233,-3,-11,16,-5,12,9,12,-3
6930655727,14,1,-2,22,8,1,4,-2
6930655727,-17,3,-13,-22,-8,3,5,10
6930670733,7,-21,-4,0,2,-11,-14,-9
6930670733,10,-41,-15,-5,-15,-3,5,5
6930678237,-29,6,11,0,1,2,-5,0
6930678237,-2,-12,13,-5,-6,-5,-9,-6
6930687095,-1,-12,-9,-10,-14,-4,9,1
6930687095,-26,-27,1,18,13,5,-5,-4
6930701386,8,0,-9,-11,-7,-18,0,-17
6930701386,0,31,20,18,17,25,8,15
6930708233,9,-5,-14,-1,42,-2,4,-5
6930708233,-1,-40,-12,-11,-45,-18,-15,-2
6930715714,-17,-8,-13,15,19,-8,13,-3
6930715714,16,24,17,2,7,4,3,7
6930730763,10,-13,8,-6,-22,-1,-5,-3
6930730763,-12,-18,-11,-6,-11,-12,-8,-5
6930738177,-5,10,-4,-20,-11,-16,13,-1
6930738177,9,-14,-13,-10,26,-2,-18,-5
6930747075,-7,-21,13,15,9,31,21,5
6930747075,3,6,-8,14,24,8,7,2
6930760735,-4,-19,5,0,-19,-2,-6,0
6930760735,14,21,0,0,-27,-14,5,1
6930769549,3,5,-12,-14,-17,-20,-15,-5
6930769549,-9,-1,7,0,17,8,-10,-7
6930783837,0,2,8,8,24,20,8,4
6930783837,-6,-11,13,18,-16,1,10,-4
6930790774,13,26,-2,4,2,-11,-5,4
6930790774,-1,9,-6,-26,-11,0,4,-2
6930807085,4,-1,1,5,12,9,-1,4
6930807085,-3,6,2,-22,-6,-9,-3,-6
6930808602,-7,-7,6,-1,-20,-18,-8,-7
6930808602,4,23,9,-5,19,13,4,0
6930820704,0,-4,0,2,-6,1,-2,4
6930820704,11,8,-21,-17,-5,-12,-3,-2
6930829612,-12,10,3,4,0,-4,-2,-10
6930829612,-2,-13,-6,-12,-6,1,27,7
6930843905,0,18,3,-8,-10,-1,-6,-3
6930843905,-9,-10,1,-5,-7,-11,-11,-6
6930850705,7,-12,-5,10,8,8,-4,4
6930850705,8,9,-7,1,-8,-11,24,1
6930867049,-5,-7,-1,-2,-6,26,-18,-3
6930867049,-18,-15,-3,6,0,-17,-10,-7
6930868590,-2,-5,3,-6,2,-3,-9,-3
6930868590,-6,-10,-2,11,-7,-44,-22,0
6930880767,7,-15,-11,-12,13,55,88,25
6930880767,2,8,9,12,3,33,25,-22
6930889574,-2,-10,-2,-3,2,7,21,4
6930889574,-14,-11,-1,-3,-5,-13,-19,-8
6930903882,2,-13,-16,-6,-4,-26,8,-7
6930903882,6,20,4,9,9,-11,16,17
6930910727,11,7,3,1,0,14,18,6
6930910727,2,7,2,7,5,9,-15,-5
6930926984,-15,-1,-3,-8,-13,-10,-9,-12
6930926984,7,-11,4,7,-2,4,-6,4
6930928591,-23,23,2,-6,-1,-10,-12,-3
6930928591,5,4,14,8,-2,8,4,10
6930940703,-2,-33,-4,-1,-3,-8,-38,-7
6930940703,-14,-6,-13,-11,-2,-4,-3,-3
6930949611,35,-27,-6,-1,-4,0,-4,10
6930949611,-18,13,8,-4,-5,6,-5,-4
6930963886,-25,-6,-4,33,9,-4,4,-9
6930963886,23,38,10,-9,-10,-3,-7,9
6930970707,-19,-28,-11,11,16,10,10,-6
6930970707,7,-5,-10,-20,-4,10,0,-1
6930987099,16,-3,30,25,15,-9,-22,7
6930987099,-37,-12,-12,4,-5,-1,-3,-10
6930988567,-4,32,-8,-14,-6,-5,-18,-4
6930988567,14,-51,8,0,-9,-4,3,-4
6931000750,7,-18,-15,-5,-5,-8,-16,6
6931000750,-13,38,8,25,-2,1,-19,-5
6931009592,-3,-26,-9,-17,3,0,10,0
6931009592,-14,-3,-3,-9,1,-1,-15,-9
6931023859,13,46,-16,-16,-4,0,8,0
6931023859,5,-20,-3,2,6,6,4,3
6931030657,-1,66,16,-3,-11,-7,-12,-1
6931030657,-14,-12,4,19,6,8,10,5
6931047078,4,29,-11,-34,-4,0,-10,-2
6931047078,14,18,5,-4,-3,-5,-5,-1
6931048590,7,-24,-3,-17,-8,-3,-2,-3
6931048590,0,-2,-2,18,-5,-3,-5,6
6931060728,-15,-7,-8,-13,1,-13,-9,-10
6931060728,-21,-11,11,27,4,12,3,-4
6931077135,4,-55,-12,-24,13,-5,18,-1
6931077135,4,36,0,12,6,17,17,3
6931083960,4,-11,-6,-19,-40,-10,9,1
6931083960,-3,-27,-2,-16,0,-11,-16,-11
6931090679,3,19,8,37,8,8,-27,12
6931090679,7,-11,-4,-10,7,-10,-1,-3
6931107008,8,-19,-4,-6,-7,0,3,1
6931107008,-22,-24,1,-8,-27,5,16,4
6931108688,-12,-9,-11,-12,-17,-7,-35,-9
6931108688,-8,7,-3,1,27,1,15,-3
6931120585,14,7,9,4,-29,6,-8,4
6931120585,2,-18,-4,13,23,-6,9,-2
6931129680,-5,4,-9,-8,-25,0,-18,-8
6931129680,10,2,5,9,-8,-2,-13,3
6931143817,-11,16,-9,-26,26,-3,11,1
6931143817,7,2,-3,-1,-10,6,2,1
6931150735,-12,-21,4,4,4,-8,12,-4
6931150735,11,10,-11,3,-19,1,1,-2
6931166986,-14,-13,-1,13,25,3,-6,-7
6931166986,10,-17,-1,-51,4,-2,-9,1
6931168503,0,-6,-33,-46,3,-3,14,5
6931168503,-8,15,25,20,-25,-8,-21,-9
6931180709,-14,-17,-18,-16,8,5,-3,-4
6931180709,19,6,25,57,3,-23,-3,6
6931189621,-5,-8,-29,-16,11,28,19,1
6931189621,-10,-11,-5,-20,-3,4,-3,-7
6931203905,4,13,4,-7,-9,-14,-4,1
6931203905,-13,-7,-4,-3,-2,-3,-2,-8
6931210692,9,15,20,26,-9,-24,-1,-8
6931210692,6,7,-1,7,14,8,4,14
6931227050,-9,-6,-4,8,-1,2,30,-4
6931227050,12,2,3,-8,9,22,-9,12
6931228600,0,-1,6,15,1,-47,-15,-1
6931228600,4,-7,-11,-24,-4,46,14,-12
6931240698,-4,-2,21,8,0,-3,7,-1
6931240698,-8,-18,-21,-14,-6,-10,-21,21
6931249591,13,5,7,6,1,7,-27,-3
6931249591,-42,-15,-2,-2,2,-19,9,-12
6931263817,12,1,6,11,0,-6,-9,9
6931263817,-3,3,-8,1,7,29,8,-3
6931270694,22,15,12,12,0,0,31,10
6931270694,10,5,-8,-11,-7,-18,-24,3
6931287076,-22,-3,5,7,4,14,-5,3
6931287076,11,4,-9,-9,-7,-33,-14,0
6931288549,4,-15,-3,0,0,12,12,-5
6931288549,-10,42,15,5,1,3,-7,-2
6931300703,10,0,10,4,3,-10,-4,10
6931300703,-26,-64,-26,-8,0,-2,5,-17
6931309631,-17,32,17,20,-2,11,-11,-5
6931309631,6,29,5,-1,1,-13,1,8
6931323911,10,17,-1,13,0,-7,-15,-6
6931323911,17,4,-23,-27,-7,5,5,3
6931330708,-35,-99,-21,-7,-3,3,5,-3
6931330708,33,28,54,12,-8,-6,-2,8
6931347050,-7,-75,-60,-40,8,1,-6,-15
6931347050,39,124,77,70,0,14,23,8
6931348593,-31,-63,-32,6,22,9,31,4
6931348593,13,76,-30,1,-21,-17,-37,-8
6931360681,5,-22,32,-16,7,1,0,2
6931360681,32,66,-9,4,-7,-8,-10,2
6931369554,-65,-62,34,21,-1,1,-7,-18
6931369554,-15,-40,-32,-7,5,-4,4,5
6931384588,12,87,2,38,3,13,8,4
6931384588,-30,-123,-39,-55,2,3,31,-12
6931390685,27,100,26,11,-3,-3,-25,19
6931390685,5,-54,5,-21,1,-6,-4,-10
6931405701,-12,24,-11,-10,-24,-12,-12,-8
6931405701,-4,16,20,27,-6,7,5,3
6931413224,10,25,-5,-19,8,-5,-1,-1
6931413224,-5,-35,-13,-5,11,4,-3,-2
6931428779,13,13,9,13,-14,6,-6,5
6931428779,-8,-7,6,-27,-22,-47,-18,-7
6931429591,3,-20,-11,-15,-24,34,-15,-5
6931429591,0,8,-9,3,-1,-4,-9,-2
6931444624,5,15,27,19,24,7,16,2
6931444624,1,3,-5,12,44,7,-3,1
6931450685,5,-2,-9,-22,-61,-21,-9,-8
6931450685,-6,-35,-17,-19,7,-13,-30,-8
6931465689,-2,-35,3,18,-2,6,22,0
6931465689,-14,-30,4,19,17,7,4,1
6931473210,16,20,-14,-35,-7,-7,3,0
6931473210,0,-13,7,47,21,12,26,6
6931488885,-9,-27,2,-30,-10,-5,-9,-7
6931488885,-6,3,-9,-12,1,3,-9,-7
6931489565,23,40,15,8,-1,-19,3,3
6931489565,-5,-8,-22,-24,0,14,2,-1
6931504584,-19,-30,-17,-3,-5,-8,-14,-7
6931504584,2,10,-7,-6,-11,8,10,4
6931510649,2,3,4,-3,14,5,2,3
6931510649,-6,-19,-5,-17,-7,-10,3,-5
6931525736,2,14,-13,-32,-10,0,0,1
6931525736,11,24,32,61,-2,0,-5,1
6931533206,-8,1,-3,-41,-14,-7,-1,-9
6931533206,-4,-4,-16,3,24,9,8,1
6931548750,-8,-3,-22,-16,-11,-6,-7,-2
6931548750,4,7,-1,2,-15,-4,-4,-3
6931549555,-4,9,22,27,20,2,-2,-1
6931549555,1,3,19,5,-12,-3,6,1
6931564540,-8,-3,7,-2,-5,-8,-12,-1
6931564540,-12,-23,-13,-9,9,1,7,-4
6931570717,14,16,0,30,16,-17,-3,3
6931570717,-15,-17,-3,-11,-8,22,-8,-5
6931585734,5,-12,-5,5,-4,0,7,2
6931585734,4,0,-17,-17,-3,-10,-15,3
6931593242,13,3,-7,2,2,-3,40,-6
6931593242,12,10,8,1,-5,-25,-18,8
6931608827,0,6,3,16,18,51,33,9
6931608827,-19,-27,-4,-18,-8,0,-9,0
6931609523,-1,-15,-3,0,1,2,2,8
6931609523,-8,1,2,4,-7,-10,-1,-3
6931624537,2,6,5,7,5,-7,13,-3
6931624537,15,-1,0,-10,1,-3,-10,5
6931630708,6,11,3,8,5,17,-18,-2
6931630708,-4,-4,-2,-2,-6,-1,27,2
6931645668,1,-11,3,-1,-2,-14,-29,-1
6931645668,0,-1,-12,-17,-8,0,7,1
6931653158,-15,-3,-2,2,0,0,-10,-4
6931653158,8,16,3,-3,-6,-1,-5,-1
6931668742,-17,17,9,7,5,-7,3,-4
6931668742,-14,-16,0,2,-7,-11,-2,-12
6931669618,7,-11,-7,-15,-1,13,3,0
6931669618,9,-35,-8,12,5,2,5,2
6931684774,0,19,10,24,4,-3,-10,-2
6931684774,-5,31,5,2,1,2,4,-4
6931690566,0,-41,-9,-8,-7,-10,-15,-1
6931690566,12,3,-13,-5,-14,-8,0,2
6931705638,17,-28,-7,21,-9,-10,-10,-1
6931705638,-19,17,6,-20,8,7,2,-5
6931713069,-6,45,8,-9,-9,-7,1,-1
6931713069,-13,15,-2,16,10,3,-3,-7
6931728777,4,-21,-26,-15,0,-7,-5,-2
6931728777,-1,-2,5,-4,-4,5,3,6
6931729598,7,-11,-9,5,-9,-6,-6,-5
6931729598,-6,-9,3,0,0,-4,2,1
6931744550,-4,86,18,2,1,-1,-11,-5
6931744550,-20,-83,-26,0,9,5,2,-7
6931750715,-8,-37,-8,10,9,6,12,0
6931750715,12,-1,2,0,-7,-4,-22,-6
6931765599,-15,3,13,-7,-8,-6,3,-3
6931765599,19,30,1,2,-2,-2,-6,4
6931773239,14,32,-9,-4,-2,-8,4,9
6931773239,8,-12,0,-11,-2,7,7,3
6931788852,-22,-50,7,-2,-6,-13,3,-3
6931788852,-5,2,-9,-22,-16,-5,-25,-12
6931789592,-15,3,-3,10,22,-20,-9,-6
6931789592,13,20,13,18,25,54,46,7
6931804599,-10,2,-7,-14,-8,9,-29,-10
6931804599,16,5,-6,-5,-22,-12,4,6
6931810683,11,-5,14,17,19,7,10,3
6931810683,-14,5,-6,-4,1,-18,-24,-3
6931825709,-6,-23,-5,2,4,-1,26,-5
6931825709,10,1,3,15,13,9,-8,1
6931833192,-4,7,-9,-24,0,1,-7,-9
6931833192,5,-2,13,6,-18,-14,18,8
6931848712,18,26,8,14,1,1,-4,9
6931848712,-33,-7,-5,-35,-1,-1,-2,-10
6931849564,0,-12,6,6,2,-5,3,-4
6931849564,-14,-16,8,14,6,3,1,-2
6931864518,21,-15,-37,-52,-3,-7,-3,6
6931864518,12,10,15,46,14,4,13,2
6931870708,-14,-13,11,13,3,13,-5,-1
6931870708,-1,5,-14,-12,-8,-13,-15,-7
6931885668,7,-9,5,-16,0,-2,-5,-3
6931885668,-3,7,-16,-3,-8,1,6,1
6931893216,-18,-6,-17,-18,-8,-5,-6,-4
6931893216,7,14,5,22,11,-1,-2,-2
6931908825,13,12,15,24,-15,-7,3,8
6931908825,-8,-2,9,-7,4,10,6,3
6931909527,11,7,-11,6,-7,-4,-3,2
6931909527,-12,-2,-4,-27,-12,-4,-2,-5
6931924583,-5,-27,-20,-2,3,-4,-10,-4
6931924583,-1,-11,-4,-10,-11,-7,-5,-7
6931930684,-2,-6,19,13,-1,8,3,1
6931930684,-6,1,-11,-15,-4,-5,-10,-4
6931945678,0,1,-3,-1,5,1,-2,1
6931945678,5,-6,-10,0,-4,-3,-2,3
6931953165,-5,0,4,-2,4,-3,-1,-5
6931953165,4,-11,-14,-9,-8,-10,-18,1
6931968841,-9,-6,-9,2,7,22,10,1
6931968841,4,0,2,0,4,-12,-4,-9
6931969523,7,-7,-1,-2,-7,-10,-9,21
6931969523,-21,-18,3,-7,0,8,-16,-11
6931984547,-2,2,9,7,0,-7,46,-24
6931984547,-10,-4,-2,-2,-2,-1,-45,22
6931990650,11,6,-1,-3,-7,12,-12,-17
6931990650,-2,16,14,6,0,0,27,-12
6932005665,-1,5,-5,-6,-2,-11,-13,14
6932005665,1,-5,2,0,3,11,7,-10
6932013181,6,12,5,2,-7,-1,0,3
6932013181,-12,-5,-6,-9,-6,-6,6,5
6932028869,-8,4,7,9,7,-1,-20,-6
6932028869,19,-29,4,-2,-11,-14,13,0
6932029520,-17,42,3,-4,-7,-1,-7,3
6932029520,8,-8,-25,-13,8,5,-1,-1
6932044550,29,15,-7,-8,-5,-7,-5,6
6932044550,-15,-24,0,22,2,1,2,2
6932050617,-41,-44,-15,-41,-8,0,2,-22
6932050617,25,35,14,-7,-8,-4,-5,5
6932065684,8,-26,7,46,-9,-11,-11,4
6932065684,-23,61,-11,-19,19,21,15,-3
6932073123,35,43,45,24,14,8,8,8
6932073123,-48,-77,-66,-31,-8,-8,-5,-6
6932088821,20,81,43,44,-1,1,-9,7
6932088821,30,89,-11,-43,-27,-23,-9,-14
6932089549,-49,-73,-10,2,-17,-17,-16,-13
6932089549,52,105,40,21,6,7,-5,15
6932104566,-76,-19,-11,-46,2,3,-4,-22
6932104566,2,-33,3,10,0,4,-3,-3
6932110736,3,-41,2,5,4,-3,16,8
6932110736,24,10,-14,9,3,-1,-12,1
6932125699,-39,-47,-20,-32,-11,-16,-17,-3
6932125699,16,-24,12,11,-20,0,7,-1
6932133173,0,17,-1,12,4,3,-2,2
6932133173,-3,-57,16,45,-2,-3,11,-1
6932148721,14,20,-4,17,20,7,-4,10
6932148721,-20,-3,-3,-41,36,3,0,-4
6932149528,23,13,-15,5,-42,-3,5,-8
6932149528,-19,12,-5,-6,-2,-4,-2,-3
6932164541,11,3,2,-11,11,-4,8,3
6932164541,7,-14,2,28,13,6,13,4
6932170684,7,13,-7,-14,-19,-15,-14,-4
6932170684,-16,-10,7,-14,37,7,-5,-14
6932185645,10,-34,-9,-30,-72,-5,0,-3
6932185645,-5,-22,5,31,36,20,13,0
6932193043,-1,6,13,16,25,3,7,9
6932193043,-2,-18,-6,-30,-9,-5,-7,-4
6932208812,-5,-23,7,10,25,-4,-5,-5
6932208812,-3,13,-4,-11,-57,-5,-2,-2
6932209503,-8,-3,-22,-38,18,0,-14,-8
6932209503,8,6,-10,15,-14,-8,6,6
6932224522,2,0,-1,-7,14,-2,2,-3
6932224522,-4,-2,0,0,-13,-3,-10,0
6932230630,-3,-7,-4,13,-13,-12,-8,-6
6932230630,-8,8,6,-51,0,3,-2,-2
6932245680,7,16,-19,-19,-4,0,7,2
6932245680,-8,-10,-10,-4,4,-5,-2,-1
6932253186,9,10,12,49,6,6,4,4
6932253186,-5,9,8,15,-12,-3,1,-3
6932268711,2,4,-16,-57,8,9,-1,1
6932268711,-1,-2,-9,11,8,-4,-5,-1
6932269639,-3,0,-8,-11,-7,-1,0,-2
6932269639,-2,-5,13,28,-7,-7,-7,-3
6932284539,-1,-5,5,14,7,0,5,1
6932284539,2,-9,9,8,2,7,2,3
6932290659,5,8,-2,-22,-2,-5,19,-7
6932290659,-9,-11,-9,-3,-3,4,-33,0
6932305660,-7,-8,0,5,2,12,10,9
6932305660,-2,-4,-2,1,3,-13,10,-13
6932313161,13,12,-5,8,7,9,40,13
6932313161,-17,-12,6,-7,-7,-7,-18,-14
6932328853,2,-10,0,17,0,5,-60,17
6932328853,2,3,7,2,-1,11,26,1
6932329524,0,-3,-13,-15,2,-4,-8,-3
6932329524,6,1,-5,-1,-4,2,-15,-6
6932344569,-7,-3,3,4,-3,-6,6,-9
6932344569,7,-11,-2,-3,-3,-6,-16,3
6932350685,7,3,3,-5,0,-2,-8,1
6932350685,-3,-3,1,-1,-3,0,12,4
6932365699,-1,-6,4,13,0,4,5,-6
6932365699,-6,8,0,-5,0,-7,-2,1
6932373188,22,-3,2,-3,0,5,-7,2
6932373188,4,8,1,3,0,-2,23,6
6932388188,-11,-19,1,0,-5,1,3,-4
6932388188,-2,13,-15,-11,-1,-10,-21,-7
6932395675,-7,2,13,9,10,10,-1,3
6932395675,4,-14,-13,-12,9,8,11,6
6932404515,18,19,-2,3,0,-2,4,-2
6932404515,-8,-19,2,-1,-7,-4,0,-1
6932410638,-10,-1,-2,-4,-17,-6,-11,-4
6932410638,6,44,-11,-8,11,-1,7,3
6932433839,6,-3,26,4,-10,-2,6,-2
6932433839,17,15,-6,-12,7,-4,-3,3
6932434519,-43,-42,-5,1,9,8,0,-6
6932434519,-8,-26,-3,5,-1,2,3,4
6932448140,0,-4,-10,-5,-3,-3,-1,-6
6932448140,19,36,24,30,-1,0,2,9
6932455695,-3,-42,-9,-20,-2,-4,-7,-1
6932455695,-19,-3,1,-9,-1,-3,1,-4
6932464522,1,13,2,-1,-3,-1,3,-6
6932464522,-22,-2,-4,3,4,9,10,5
6932470660,6,15,3,12,4,-2,-5,1
6932470660,3,4,1,-12,-11,-5,-4,-1
6932485659,15,14,3,11,-3,-5,16,-2
6932485659,10,-7,11,-6,-2,-3,-29,-10
6932493144,-14,9,-5,0,-6,4,0,5
6932493144,15,26,1,-5,1,-3,4,5
6932508097,-8,12,-5,-2,-11,-5,-1,3
6932508097,13,14,-2,7,1,3,23,3
6932515670,-12,3,9,31,33,14,7,-5
6932515670,7,-10,5,-1,-5,6,-4,2
6932531344,-18,-17,-17,-24,-14,-12,-24,-7
6932531344,-19,-16,-5,-8,-25,2,16,-3
6932532017,16,1,0,-12,-18,-14,-14,1
6932532017,0,-15,-8,1,9,3,10,-1
6932545690,-7,0,7,26,21,2,-2,-3
6932545690,-13,-18,-10,-14,-6,-19,-19,-5
6932553186,8,8,-2,-13,-11,8,4,-4
6932553186,11,11,13,9,-2,-13,-4,-1
6932568087,-6,-8,-4,-7,-9,-3,-4,-4
6932568087,-1,-9,-3,-7,2,-3,-2,-3
6932575621,8,0,-13,-2,4,-3,2,3
6932575621,-6,-1,10,30,1,5,2,-4
6932591305,-9,-13,-13,-59,-16,-5,4,-4
6932591305,-1,-10,-5,36,5,-3,-5,-2
6932591993,5,4,-17,-3,10,-3,-3,-1
6932591993,-5,-14,5,29,-14,-2,-5,1
6932605592,5,3,3,-9,15,4,5,0
6932605592,-3,-5,-14,-9,6,5,3,2
6932613155,-4,9,-3,-7,-5,1,-2,-1
6932613155,-3,-14,-2,30,-9,-1,2,-1
6932628138,-4,-5,10,44,9,-2,-3,-3
6932628138,3,20,0,-20,1,0,-1,-1
6932635625,4,-1,6,-6,-1,0,6,2
6932635625,2,0,-8,-16,11,1,0,-1
6932651320,14,5,-1,11,-3,5,1,4
6932651320,3,1,4,-2,5,0,-19,1
6932652046,-12,8,-3,-5,-17,-7,12,-3
6932652046,-5,4,-5,-20,1,2,-5,-5
6932665629,-9,-9,0,1,0,-1,-19,-8
6932665629,1,-7,-4,-3,-5,-4,34,1
6932673064,7,-13,7,3,2,-23,-10,-4
6932673064,-15,-22,-4,-17,-7,18,-7,1
6932688146,-2,-6,-11,-3,2,-3,4,-6
6932688146,-18,-8,5,-2,-12,-14,-23,-5
6932695642,12,10,-1,-2,-3,-20,17,-4
6932695642,4,3,2,-8,0,14,-6,-13
6932711314,14,11,-2,3,1,-12,-20,14
6932711314,-9,-5,-2,-4,5,36,-52,13
6932711994,-1,11,6,7,3,-17,11,-9
6932711994,13,5,-1,0,4,8,12,20
6932725617,6,-12,-1,-2,-2,14,7,9
6932725617,-8,-19,1,-1,-3,-18,-12,-38
6932733153,-1,-1,-3,-3,3,17,-8,1
6932733153,-14,-8,2,-3,-7,-16,-8,-5
6932748051,4,-6,2,0,-1,3,11,-6
6932748051,-5,41,5,-2,0,-4,22,7
6932755651,-12,22,-2,7,4,9,-6,0
6932755651,10,1,8,-4,-5,-10,6,2
6932771353,19,43,15,4,-7,2,11,9
6932771353,-21,-35,-33,-8,13,4,4,1
6932771989,11,3,-12,-3,0,11,-9,-5
6932771989,0,-9,-3,15,1,-6,-12,-1
6932785612,-1,8,30,-11,-6,-5,1,-2
6932785612,16,21,-6,-11,-12,-9,10,8
6932793110,-2,84,39,38,12,20,4,0
6932793110,-53,-123,-71,-58,-2,-11,-6,-16
6932808062,28,29,37,24,5,12,6,6
6932808062,-7,-15,-32,-17,1,-9,-1,-6
6932815634,15,-7,0,24,-22,-9,-9,12
6932815634,18,123,45,-68,3,-9,-2,-7
6932831310,4,-7,11,35,-4,-2,2,0
6932831310,-26,-86,1,-17,21,1,-6,0
6932831948,15,8,-11,-16,8,9,8,8
6932831948,38,-47,-24,-2,-7,-2,-9,-5
6932845675,-68,9,-17,-7,-17,-15,-19,-14
6932845675,16,104,69,0,-4,-8,-1,3
6932853141,6,32,29,52,-5,-11,-3,-1
6932853141,16,63,-32,-25,6,12,14,15
6932868163,24,-65,-14,-10,13,11,12,9
6932868163,-26,-5,-15,39,-5,4,3,-4
6932875650,-2,-22,-3,-22,-16,-2,-7,-3
6932875650,-7,20,24,25,-12,-17,-2,-3
6932891265,-5,13,-25,1,7,-8,-2,-6
6932891265,16,25,12,19,7,21,3,4
6932891996,-23,-68,-19,-23,-6,6,-37,-5
6932891996,-3,-7,20,34,17,3,38,0
6932905645,-15,-15,-14,1,6,13,-33,-17
6932905645,34,-17,-3,-8,-1,-14,26,5
6932913114,-12,-15,-5,-28,-18,-21,-36,-10
6932913114,-22,-28,-4,20,-5,7,1,-5
6932928129,-1,9,-14,-10,-11,-12,-17,-3
6932928129,6,0,0,3,25,-1,17,5
6932935594,-6,-23,-22,-10,-1,17,5,-3
6932935594,3,10,17,21,-14,-18,-6,1
6932951247,-3,-19,-2,-19,13,-2,12,-2
6932951247,2,-4,-10,-22,-16,-8,-19,-5
6932952051,-2,-5,-10,10,11,-12,11,0
6932952051,6,0,3,-10,-23,-10,-12,-1
6932965664,-7,1,6,25,12,11,16,1
6932965664,-6,-14,5,19,-15,-5,-4,-2
6932973170,-5,3,-3,-28,10,14,11,2
6932973170,-2,-14,1,4,-1,11,0,0
6932988199,-4,2,-38,-86,-28,-16,-5,-4
6932988199,5,12,-6,-18,-15,4,0,1
6932995642,-6,-11,11,43,16,-5,0,-2
6932995642,-5,8,17,15,-4,-4,-11,-3
6933011179,8,14,3,25,2,5,14,7
6933011179,-6,-13,-19,-30,-10,0,-4,-6
6933012078,2,3,5,-2,-3,-7,4,-1
6933012078,1,2,0,-8,-8,-14,-6,-1
6933025621,1,-5,-5,13,16,20,14,-1
6933025621,6,11,15,8,-4,-4,-2,2
6933033032,-8,-13,-3,-12,-4,-2,1,-3
6933033032,-14,-12,-3,9,3,10,-1,-4
6933048055,4,-11,0,-1,-6,-15,-20,-3
6933048055,7,1,-10,0,2,-5,18,3
6933056375,-8,-2,-3,-7,10,26,14,5
6933056375,13,-10,-12,0,5,-1,-2,8
6933071326,1,3,-1,-4,0,-20,-1,-1
6933071326,-25,-8,7,11,-8,9,-7,-14
6933071937,7,3,-6,-13,-10,-6,-9,1
6933071937,3,10,-2,3,12,4,15,-2
6933085670,10,9,2,8,6,6,-13,2
6933085670,5,-1,0,6,-3,3,12,2
6933093131,-7,-14,-8,-17,-11,-12,-38,-1
6933093131,5,-2,-1,0,5,8,22,0
6933108147,-11,-8,0,-3,-8,-8,16,2
6933108147,2,21,8,5,3,-4,-21,2
6933116286,1,-30,-8,-4,1,7,2,-5
6933116286,-28,12,7,4,1,-4,-8,-2
6933131220,-9,-10,14,-6,-8,1,2,-1
6933131220,-7,-26,-15,22,4,-4,-4,-3
6933132075,21,9,-19,-22,-8,-8,11,6
6933132075,9,4,-4,-7,15,9,-2,-3
6933145642,-11,-7,5,20,-3,2,8,-1
6933145642,7,53,27,2,8,5,-3,4
6933153160,-5,-53,-8,-10,-14,-10,4,-2
6933153160,8,41,8,8,0,-6,-10,1
6933168161,-11,-5,-5,-11,-2,-1,-10,-5
6933168161,12,10,-5,-18,-11,-1,-3,1
6933176316,2,16,2,-5,0,-2,6,-4
6933176316,-11,38,-11,4,1,1,-2,0
6933191320,-3,-94,-11,9,1,-3,0,1
6933191320,4,22,-5,1,-2,0,1,1
6933191958,-25,50,8,-15,-5,-2,3,-6
6933191958,3,-45,-14,-2,4,3,-7,-5
6933205681,-20,33,1,8,-4,0,5,-4
6933205681,19,-32,-7,-22,-3,4,-6,9
6933213159,-13,-11,24,13,2,1,21,-4
6933213159,6,32,-18,-23,1,0,-22,2
6933228126,9,27,-20,-1,-7,-3,-1,-3
6933228126,0,14,8,-9,-4,-4,-1,0
6933236336,17,-48,-17,2,0,2,12,9
6933236336,-13,52,34,1,-11,-3,7,0
6933251243,-5,-3,-17,-12,3,8,-11,-6
6933251243,-8,-11,3,12,-6,-7,-5,-5
6933251994,16,17,4,6,23,6,2,4
6933251994,-1,-36,-1,6,-6,2,1,-3
6933265519,9,18,2,-5,-4,-11,-7,3
6933265519,-9,-3,-3,-19,-14,1,2,-10
6933273063,9,-9,-2,34,5,-11,-45,1
6933273063,-8,-28,-5,14,23,23,21,1
6933288129,29,26,14,-2,1,-1,-11,8
6933288129,-49,-33,-25,-13,-6,-20,8,-7
6933296351,6,16,4,-21,-30,-32,-19,-19
6933296351,-14,-17,-1,-4,-15,7,51,5
6933310607,6,6,12,10,4,-17,-19,-3
6933310607,4,-13,0,30,63,68,22,-1
6933318818,-2,14,-1,10,5,16,13,5
6933318818,6,8,-9,0,-23,-50,-43,1
6933333787,0,5,1,-26,-10,38,25,-5
6933333787,12,7,-2,-4,-18,-41,10,0
6933334537,-19,3,-7,-18,4,-11,-25,-9
6933334537,16,-23,6,33,20,20,-1,-2
6933348063,-9,-7,4,29,-11,-16,-15,-2
6933348063,2,-13,-23,-42,-11,-9,-21,0
6933356261,-14,-17,-7,37,0,14,10,-4
6933356261,-1,-16,5,-56,-7,-12,-11,-1
6933370655,0,3,2,-17,18,1,14,-3
6933370655,-13,-39,-21,-12,-1,10,-2,0
6933378831,2,4,-7,-49,-27,-11,17,1
6933378831,9,-5,22,13,9,1,0,2
6933393810,-4,-2,-40,-47,-15,-11,-9,-2
6933393810,9,4,15,39,-6,-1,1,3
6933394487,-5,0,-3,1,5,2,-4,1
6933394487,-2,-10,-11,-42,-30,-10,-17,-5
6933408083,3,18,17,-2,4,6,8,5
6933408083,0,6,1,6,-2,-9,-12,-4
6933416328,3,12,12,17,3,1,10,2
6933416328,5,14,9,25,2,-5,-2,-7
6933430634,-2,-16,-1,14,9,20,8,1
6933430634,9,4,3,-7,1,-22,11,-5
6933438784,-11,-18,11,6,5,15,-7,-2
6933438784,17,-19,-21,-1,6,49,-9,23
6933445522,-13,-4,-9,-11,2,-19,-23,-15
6933445522,-41,-17,-2,8,-3,-10,-8,-26
6933453123,13,7,8,-5,1,2,17,53
6933453123,-14,-1,7,6,2,-18,5,-46
6933468170,9,-12,-16,3,-9,-13,44,-4
6933468170,10,8,8,7,3,29,-15,-8
6933476204,-1,-6,0,3,7,-5,45,9
6933476204,2,-8,-10,-2,1,-4,-3,19
6933490594,1,11,14,16,-1,-2,-19,-16
6933490594,-2,-2,1,-3,-7,-17,5,-31
6933498798,-2,10,-5,-11,-1,-12,-15,-21
6933498798,5,9,0,7,2,17,2,8
6933513762,0,13,7,3,4,3,-2,-5
6933513762,6,-11,3,-3,-16,-7,-20,21
6933514492,-46,-34,-26,8,15,1,-11,-13
6933514492,17,-46,-2,9,2,-14,-9,-5
6933527998,22,35,25,-2,-12,-6,-11,18
6933527998,-50,26,-30,4,-6,12,12,4
6933536311,35,24,-17,-38,2,0,5,-1
6933536311,54,73,37,15,6,5,16,19
6933550567,0,85,2,40,-2,-4,1,10
6933550567,-19,-38,13,-52,19,2,-4,3
6933558738,-11,9,-1,10,-13,-5,-17,-26
6933558738,-74,-104,-84,3,0,4,-23,-11
6933573792,9,44,36,38,-17,-6,-7,-5
6933573792,74,21,-22,-85,0,3,4,14
6933574478,-10,-44,121,19,7,-1,-8,11
6933574478,6,-66,-3,53,-3,-16,-2,-17
6933588151,-31,23,-44,-18,-4,-7,-2,1
6933588151,-25,-15,-20,-9,-7,8,-6,-2
6933596287,21,-24,-41,-1,5,0,-10,-1
6933596287,-8,47,43,-8,-3,-4,-10,-7
6933610614,6,-30,16,19,8,3,-1,-7
6933610614,1,4,3,23,-8,-21,-13,15
6933618746,48,70,-29,-17,15,-9,19,9
6933618746,-36,26,3,-19,-38,-13,-36,-5
6933633781,-8,-35,-26,-30,2,19,11,3
6933633781,17,26,9,9,-6,-6,-2,-1
6933634475,-6,36,32,40,39,24,26,4
6933634475,5,19,-15,-13,4,-13,2,1
6933648132,-8,-31,0,-19,-2,27,7,7
6933648132,9,-27,24,45,-1,-5,-10,-2
6933656318,-34,-60,-15,-9,-11,-19,-8,-14
6933656318,6,14,-2,5,-14,26,35,3
6933670593,11,-33,-12,-35,8,-2,28,9
6933670593,-5,-11,17,18,7,-3,-15,-6
6933678784,-2,1,-14,28,-14,-5,-13,-7
6933678784,3,-1,-26,-83,9,-18,6,-3
6933693692,-17,-48,9,20,-16,-4,-5,-5
6933693692,4,5,-3,-26,-7,1,-5,-3
6933694508,3,22,5,17,-7,-1,4,-3
6933694508,-6,-26,-2,52,31,16,10,-1
6933708119,1,-14,-6,-21,5,-6,-11,-1
6933708119,-6,11,22,44,-5,-4,13,0
6933716288,-1,-3,-28,-40,-18,5,-15,-2
6933716288,2,4,-3,-16,-13,-3,-2,1
6933730573,-3,17,7,-9,6,-9,-3,-2
6933730573,1,5,5,66,17,11,13,7
6933738687,6,17,3,-14,-14,5,-3,2
6933738687,-8,10,5,13,12,-3,-6,-4
6933753730,6,1,-5,21,8,-2,1,2
6933753730,5,2,-2,11,-11,-4,-6,-1
6933754441,-10,-17,-17,-8,4,2,-4,-4
6933754441,11,11,24,-13,-2,-22,-3,4
6933768138,-2,-10,-6,4,-12,-1,-16,-8
6933768138,-14,-13,-4,-9,6,-1,7,-4
6933776271,8,3,-9,2,-3,13,-8,2
6933776271,-1,-2,4,13,-4,-10,-5,1
6933790491,-3,-5,7,-6,3,-5,4,-3
6933790491,18,5,1,2,5,-9,8,7
6933798809,5,-7,-12,-27,-9,1,-1,-4
6933798809,-35,-10,0,-10,-4,-22,10,-6
6933813733,-12,-12,6,6,15,39,-17,1
6933813733,-7,1,-7,-27,-10,11,16,-5
6933814443,15,5,8,14,-5,-8,-9,4
6933814443,8,7,6,-1,3,0,-5,-2
6933828016,-10,-4,-6,-4,-1,-12,-10,-4
6933828016,-1,3,-5,-3,-1,-6,-28,-5
6933836311,-19,-3,0,-5,-6,-7,26,-1
6933836311,10,-5,-9,-7,-6,15,-8,-1
6933850602,11,-3,-9,-15,-3,-11,7,1
6933850602,10,8,4,-6,-2,5,8,22
6933858803,-5,-7,1,0,-2,-8,-19,-20
6933858803,-23,-18,-5,-12,-4,4,2,2
6933873734,25,5,3,4,-3,-10,11,-4
6933873734,-30,4,2,-1,5,4,-8,-3
6933874458,17,29,4,5,0,1,7,13
6933874458,-11,-31,-1,-3,0,-6,14,-5
6933888094,4,16,-8,-19,-7,2,-8,1
6933888094,-18,-13,-18,23,10,-2,-2,-9
6933896306,-5,-17,0,-7,4,7,-2,1
6933896306,21,7,20,1,-8,-6,-11,0
6933910611,4,-55,4,11,7,-2,7,5
6933910611,24,124,-2,-18,-2,-2,-1,0
6933918715,-9,-94,-27,-11,-1,-1,-3,-7
6933918715,-48,26,-23,7,-1,7,2,-7
6933933712,-8,6,-15,-12,5,-3,-14,5
6933933712,4,2,24,-15,-13,-2,11,4
6933934457,-18,-33,-3,27,9,-4,-13,-6
6933934457,8,32,-4,-27,-15,-3,-5,-2
6933956931,27,-22,16,27,-11,-9,5,-3
6933956931,-1,24,-31,-14,18,13,6,0
6933957639,19,57,29,9,-9,-3,0,8
6933957639,3,-15,0,0,9,8,5,-2
6933970637,-19,26,-3,6,-5,-2,-12,-3
6933970637,11,-40,16,-12,-10,-9,-12,-1
6933978736,13,15,-1,2,-10,-2,0,-4
6933978736,-26,0,-27,-17,-1,-3,2,-2
6933993144,11,-19,2,0,-4,3,0,3
6933993144,12,19,11,-7,-5,-17,0,-1
6934001945,-28,5,-9,-3,14,21,-14,-6
6934001945,45,34,13,3,0,-3,6,1
6934008132,-18,21,-4,-6,5,8,-5,2
6934008132,-14,-39,-4,3,-8,2,-5,-11
6934016969,-4,-8,2,-8,6,-20,25,3
6934016969,13,-34,-2,2,-36,19,-62,8
6934030650,-4,2,-8,-18,3,-35,-13,-14
6934030650,9,-14,3,27,1,24,19,11
6934039448,12,20,3,-1,-2,-6,-13,3
6934039448,-4,14,9,7,25,2,-6,-2
6934053091,-19,-8,-3,-16,-22,-4,7,-7
6934053091,-33,-41,3,20,-8,-3,-15,-14
6934062020,7,-5,-10,-34,19,4,6,-2
6934062020,14,6,2,-3,3,-2,21,8
6934068101,-11,1,2,19,-6,-11,-9,-6
6934068101,12,-29,5,29,17,0,12,4
6934076942,-7,9,-25,-47,-18,4,2,1
6934076942,6,-6,5,58,30,3,10,-3
6934099435,-4,-26,-43,-74,6,4,5,2
6934099435,5,9,29,10,-19,2,-3,2
6934100954,-17,-33,1,-15,4,2,-2,-4
6934100954,2,-5,10,10,-5,2,6,3
6934113051,5,-4,-12,12,11,6,9,2
6934113051,4,11,-13,-9,-5,-17,-5,2
6934121987,4,32,23,18,-16,-9,-20,-7
6934121987,-7,-7,-1,-2,9,3,21,-1
6934128086,-10,1,24,17,-5,9,15,2
6934128086,7,2,-19,-34,-5,5,-14,-7
6934136961,6,16,5,24,3,-11,-7,4
6934136961,3,-5,-5,-9,-8,-7,-3,-4
6934150611,11,12,11,16,10,-6,23,8
6934150611,-17,-20,-18,-16,-2,7,-1,-9
6934159467,-12,-16,-2,9,10,-7,10,-9
6934159467,5,-18,-13,-17,-12,19,-7,-2
6934173106,21,1,3,2,7,-3,39,5
6934173106,-27,-20,-8,-11,0,-5,-14,-10
6934181922,-3,-11,2,2,-15,0,-4,11
6934181922,1,5,-4,-12,-2,-12,18,-5
6934187974,-8,10,3,1,-4,-5,-17,11
6934187974,23,0,5,3,2,-13,-7,-28
6934197013,-1,0,-3,-2,-6,26,1,-8
6934197013,7,-8,4,-5,-1,-16,-7,3
6934210605,-8,-13,-6,2,2,30,3,-1
6934210605,6,-6,-5,-1,0,-11,-5,7
6934219425,-10,15,-3,-1,-7,10,-3,0
6934219425,5,15,-1,-5,3,-22,4,0
6934233111,-15,11,3,4,-2,-2,-14,-9
6934233111,5,-10,-12,-6,1,1,-4,2
6934241957,12,16,0,4,1,-4,1,3
6934241957,14,22,4,-2,-8,5,0,9
6934248104,-11,-2,13,-1,-7,-12,-10,-14
6934248104,34,-5,-7,-4,-3,0,-5,10
6934256946,2,75,28,21,5,2,13,0
6934256946,-10,-40,-32,-21,7,4,13,-5
6934270617,11,85,31,37,1,-1,-39,2
6934270617,18,88,33,-12,-9,3,12,1
6934279437,-28,-3,-67,-20,14,0,0,3
6934279437,24,64,-11,-21,-25,-13,-12,-10
6934293107,-80,-108,-40,-4,-3,-7,-4,-20
6934293107,37,22,48,48,19,17,19,22
6934301959,17,72,16,49,-20,-9,-5,-3
6934301959,-89,-98,-68,39,12,-8,-20,-23
6934308094,4,11,-36,-54,4,8,4,-5
6934308094,2,41,-17,-26,-3,-6,0,13
6934316919,-17,-56,13,-7,-14,-9,2,-6
6934316919,15,-9,19,-3,-12,-11,-31,-8
6934330566,59,2,23,14,-12,-6,6,23
6934330566,-38,-28,11,34,15,18,13,0
6934339420,17,19,-8,-45,7,4,-13,-12
6934339420,-11,41,23,8,5,7,1,-4
6934353110,-5,7,0,-14,-1,-8,3,-4
6934353110,12,20,-8,-29,-16,-15,7,-3
6934361972,2,-10,-12,3,-15,-10,-29,16
6934361972,-36,-7,11,-3,13,11,11,-5
6934376961,10,-9,-10,37,20,-7,7,-5
6934376961,-3,-37,-19,-15,-8,4,-24,8
6934378461,2,-12,11,-10,-26,-6,-22,-9
6934378461,-1,8,3,-25,-12,-16,-37,2
6934390554,27,17,15,20,25,-1,17,9
6934390554,-19,-7,-1,12,24,27,23,-6
6934399465,12,-16,4,59,11,25,24,3
6934399465,3,-29,16,-41,7,8,18,8
6934413056,15,-4,-29,-20,-31,-3,-23,2
6934413056,-28,-25,-32,-11,-5,-32,-22,-16
6934421921,7,-22,14,57,8,-2,14,2
6934421921,12,1,-4,-43,-9,7,-8,5
6934436913,-7,-9,22,17,30,11,-3,-8
6934436913,-5,-2,-8,-17,-8,1,5,-1
6934438412,-6,-10,10,-26,3,-22,0,-2
6934438412,2,5,21,34,-12,1,-3,-6
6934450578,3,22,-13,-22,-23,-2,-10,0
6934450578,-9,-11,-12,-7,5,-6,1,-5
6934459437,-18,6,6,-28,-9,-7,1,-11
6934459437,5,-12,-5,5,4,0,11,3
6934473025,-6,6,13,-9,-4,8,14,1
6934473025,-25,-43,-6,0,-5,-13,-2,-10
6934481923,5,-4,-8,-16,8,13,1,2
6934481923,11,27,14,18,-2,-4,12,4
6934496896,-18,-11,-8,-17,-9,1,2,-11
6934496896,3,13,5,0,-3,-6,-14,1
6934498469,-10,-29,-3,-15,0,-7,15,1
6934498469,-3,-1,-7,6,8,1,-12,0
6934510446,5,10,1,0,-8,-15,2,0
6934510446,4,9,6,7,2,10,-1,1
6934519463,-7,-13,-28,-26,-16,-7,-2,-5
6934519463,16,12,-2,10,-2,0,25,0
6934533084,6,-14,5,10,14,4,4,-1
6934533084,-15,-16,-1,1,-2,2,-41,5
6934541965,4,-15,5,9,16,7,4,5
6934541965,-2,12,0,-3,-11,-7,-6,-5
6934556936,11,8,8,0,-4,4,-12,2
6934556936,-14,-11,-6,-4,-2,-4,26,-6
6934558419,-2,-15,2,-4,-4,-9,-11,-3
6934558419,1,-14,-1,0,1,1,5,5
6934570581,4,-8,-4,-5,-7,-17,-4,-9
6934570581,-1,0,3,6,-3,12,11,6
6934579464,-22,2,-2,-7,0,7,-13,-6
6934579464,20,8,-2,1,-4,-4,16,-2
6934593109,-1,16,-1,1,3,4,-4,7
6934593109,4,0,-7,-1,-7,-14,14,1
6934601899,2,12,4,-2,-1,2,10,-5
6934601899,-8,30,-2,3,4,4,2,5
6934616876,-16,7,0,-4,-4,-4,-20,-14
6934616876,31,28,8,4,1,3,-4,3
6934618405,1,-20,-14,-11,0,-3,-5,-2
6934618405,-24,4,2,2,-3,-6,1,-5
6934630555,16,31,2,4,-4,3,4,4
6934630555,1,62,-5,-8,-3,-2,28,0
6934639466,29,-42,-19,15,8,1,-25,1
6934639466,-9,-18,11,3,49,-22,-8,3
6934653059,-43,48,3,-14,-58,20,-1,-5
6934653059,-5,-41,-17,-14,18,10,1,-2
6934661940,17,60,22,14,-17,-9,16,7
6934661940,-5,-108,-10,-3,26,8,-6,0
6934676930,-1,38,19,18,-13,-6,-4,-2
6934676930,7,12,2,-10,10,-6,-6,-6
6934678446,-9,4,-10,-18,6,7,9,1
6934678446,16,41,30,20,-76,-7,-15,3
6934690604,1,-26,-35,-44,18,5,28,-1
6934690604,-25,-26,1,28,8,0,-33,-6
6934699443,5,-21,5,-8,12,2,5,2
6934699443,15,39,-9,22,19,4,16,2
6934713090,-19,-17,3,4,-10,-8,-14,1
6934713090,6,-5,-9,-29,-15,-13,-11,-6
6934721916,-22,50,13,12,28,-3,5,-9
6934721916,-8,19,-9,-4,-18,18,3,7
6934736924,-8,-11,-6,-7,4,-2,-7,0
6934736924,9,-1,6,10,-6,-6,-5,-10
6934738416,1,5,6,10,-13,-18,2,8
6934738416,7,-8,-13,-22,13,-12,-2,-16
6934750552,16,-48,-8,-9,-12,6,0,10
6934750552,-21,-24,11,15,21,11,5,2
6934759468,14,-22,9,20,6,24,3,1
6934759468,2,-6,-3,-4,30,-10,5,6
6934773046,16,-26,-6,15,-48,-8,-10,0
6934773046,6,-10,-17,-42,-12,-7,4,-3
6934781946,-20,-13,-10,3,8,-12,-5,-4
6934781946,-9,-5,3,6,-18,12,-6,0
6934796929,-14,-13,2,6,32,-11,-3,-9
6934796929,10,-6,3,23,-25,8,-3,0
6934798417,5,13,-26,-50,-7,-9,-2,-2
6934798417,-30,6,4,35,0,5,-10,-7
6934810563,-4,-18,4,-27,22,8,3,-7
6934810563,6,18,3,14,2,-13,0,0
6934819449,-5,17,21,4,-14,-5,-9,-4
6934819449,-11,-25,-10,-5,-6,3,-1,-5
6934833073,7,28,2,6,10,-6,0,1
6934833073,-5,-2,12,-10,-14,3,5,3
6934841912,-9,-10,-13,-9,-4,3,-5,-5
6934841912,30,19,-5,-16,-8,3,1,4
6934856889,-6,2,-6,13,9,-10,-3,2
6934856889,-17,-13,2,-8,1,3,5,-2
6934858404,9,8,-2,1,-9,8,-6,0
6934858404,-5,4,1,-5,5,-1,-9,2
6934870562,18,-2,4,4,9,2,14,2
6934870562,2,22,9,11,1,0,-9,2
6934879395,5,-8,-9,-2,-4,-10,5,-1
6934879395,4,16,6,1,-8,-5,-11,0
6934893042,-9,-14,-4,-2,9,7,17,4
6934893042,11,3,-6,-5,-4,6,-25,-6
6934901984,-18,-5,2,3,0,2,-4,-5
6934901984,3,0,-1,-11,0,-3,12,0
6934916934,-7,2,1,3,1,-21,5,-6
6934916934,-7,-27,-5,4,2,15,-2,6
6934918469,23,-8,-2,0,-2,-9,11,-1
6934918469,-24,-10,-1,-6,-7,-3,-11,-5
6934930555,8,-18,0,3,1,6,0,4
6934930555,0,-3,-5,2,2,-15,6,-1
6934939427,3,0,3,-3,-3,10,1,1
6934939427,-5,-12,-6,-8,-5,-13,-43,0
6934961865,0,-5,0,1,0,13,9,-6
6934961865,-15,12,0,-3,0,-10,12,-7
6934963367,3,5,-2,-1,0,6,14,6
6934963367,5,-4,-7,-7,-2,18,-6,-10
6934976950,10,15,1,2,-2,-5,-17,0
6934976950,4,4,-4,3,-1,-9,12,4
6934978397,-23,-2,-3,-2,-4,-5,3,-1
6934978397,-18,2,-4,-3,-1,0,8,-4
6934990442,2,9,2,1,-4,-13,-10,-1
6934990442,6,9,-7,-2,-2,11,16,1
6934999421,-6,6,-9,-7,-4,-7,-29,-2
6934999421,1,-17,-3,-3,-6,-6,3,-10
6935013087,-13,8,-11,-10,-9,-1,-4,0
6935013087,18,7,6,-1,23,6,-11,0
6935021922,0,3,8,10,-5,4,6,3
6935021922,9,23,5,6,4,13,6,3
6935036899,4,1,0,11,1,-5,-7,0
6935036899,-18,-18,-5,-10,-33,-23,-9,-4
6935038387,2,1,2,0,-2,6,-4,-2
6935038387,9,-2,-18,-22,16,6,20,4
6935059385,-31,-2,16,56,22,15,0,-1
6935059385,15,8,10,-8,11,2,-4,-2
6935060922,-20,-14,-10,-14,-4,-11,-2,-5
6935060922,29,16,8,-5,-30,-16,-9,4
6935073047,-8,-17,-12,-22,4,2,-5,-3
6935073047,-3,20,7,15,-6,-3,0,0
6935081929,-7,10,5,-4,-6,0,-4,-1
6935081929,6,12,-10,-7,6,-2,6,-7
6935096919,6,14,4,-5,-9,2,4,4
6935096919,-13,-5,5,17,1,-3,0,-2
6935098454,11,-2,-7,-17,-2,-4,-4,1
6935098454,-9,-8,-15,-20,-18,-7,1,-2
6935110448,4,-13,-7,-3,11,1,-5,3
6935110448,-3,-13,-19,-27,-26,3,-3,-4
6935119414,-3,-9,4,16,33,-4,15,4
6935119414,-15,-24,13,23,1,29,7,2
6935133763,13,-3,3,-8,-17,-6,-9,-4
6935133763,0,-12,-8,-2,7,5,13,4
6935140515,3,-13,7,5,-18,-12,-10,-9
6935140515,-4,-5,3,5,8,-11,17,7
6935156871,5,-1,-2,-14,20,-6,-4,-3
6935156871,3,-9,-4,-1,-27,8,-5,4
6935158425,4,1,-5,4,15,1,10,-1
6935158425,3,4,1,1,-3,-9,-23,-1
6935170560,14,3,-4,-4,17,0,10,-1
6935170560,-12,4,-1,-11,-15,6,-2,-4
6935179392,-2,5,3,0,-6,-1,-7,0
6935179392,10,1,-6,-3,-3,-1,-4,0
6935193781,-19,-2,-1,2,-3,2,3,0
6935193781,-1,-1,5,16,8,3,-8,-4
6935200550,0,6,1,-5,-4,6,3,1
6935200550,9,-8,-4,-2,23,-1,7,6
6935216247,13,9,10,6,-41,-8,2,0
6935216247,-20,-4,-15,-23,2,-15,-35,-1
6935223056,-6,3,-1,3,10,8,1,-1
6935223056,-13,-15,-8,4,11,6,8,-4
6935239417,0,-13,-13,-7,-7,-3,-9,-2
6935239417,5,7,7,-4,0,-6,2,0
6935240939,15,1,5,9,-7,-2,-3,2
6935240939,-9,8,5,15,12,-3,13,-3
6935253067,-14,-7,-7,-15,-1,6,-8,-3
6935253067,13,2,3,3,2,-4,7,-1
6935261909,-3,-2,-3,-10,-15,-10,-6,-3
6935261909,-8,-1,1,0,5,0,2,-5
6935276203,0,9,-6,-6,-1,2,-2,1
6935276203,6,1,-8,2,6,-11,11,1
6935283002,0,3,2,-1,-6,2,-12,-2
6935283002,-4,-12,4,-3,-11,-6,-5,-1
6935299374,-19,-3,1,-1,-4,-1,3,-7
6935299374,0,-3,-6,1,7,-4,-5,-3
6935300915,3,-3,-4,-1,-2,7,5,2
6935300915,15,10,-3,-5,-11,-12,-7,-2
6935313658,-1,12,3,2,4,5,-4,2
6935313658,-5,-9,-1,7,4,5,7,0
6935320542,-23,-15,-1,2,4,-3,-3,-7
6935320542,10,-1,-2,-7,-8,-3,-3,-1
6935336265,8,-4,-2,0,1,-6,-4,-3
6935336265,-4,6,7,5,4,-1,-6,-1
