timestamp,emg1,emg2,emg3,emg4,emg5,emg6,emg7,emg8
7010013495,12,-1,-8,-4,2,-6,5,0
7010013495,-19,-15,-11,-14,-9,0,-9,-9
7010014309,-12,0,4,-3,-4,-2,-3,-3
7010014309,-1,-2,-3,1,4,4,14,6
7010015112,-6,-11,3,-5,-20,-10,-19,-7
7010015112,-2,9,-4,-6,1,2,11,-4
7010017916,4,9,-2,-9,-4,-3,-22,0
7010017916,9,-1,10,13,9,5,21,3
7010025679,4,0,0,3,3,3,-7,-1
7010025679,6,12,3,-4,-5,-13,0,-2
7010034917,-2,-6,-7,-14,-15,-3,-13,-6
7010034917,-4,-13,-4,3,6,6,-18,3
7010039986,-3,9,-1,-3,-2,1,-7,1
7010039986,-4,-1,-5,-7,-11,-20,2,-8
7010054989,4,-8,4,19,23,23,15,5
7010054989,5,9,-1,-5,-7,-18,-12,-4
7010064408,-5,-1,-3,-3,3,12,5,1
7010064408,-2,-9,-1,2,0,2,-2,0
7010069984,0,-2,-3,-3,-7,-6,2,-4
7010069984,-4,7,-5,-6,-6,0,-1,-6
7010085789,-7,-7,-2,0,1,-19,-2,-2
7010085789,5,-2,5,4,1,28,-6,3
7010093603,1,9,2,-3,-5,-9,11,-5
7010093603,-4,-1,-3,3,13,12,-20,-1
7010134105,1,-22,-2,1,1,2,11,3
7010134105,3,7,0,-2,-1,-2,-2,-4
7010134935,-3,11,0,-2,-3,-5,-2,-2
7010134935,3,-12,-3,-2,-4,-4,-1,-4
7010137976,-1,4,0,-2,-1,-9,-14,-3
7010137976,2,7,-3,-2,0,-6,25,-7
7010138754,-11,-12,0,2,1,16,-3,8
7010138754,-6,-12,-5,-1,0,1,7,-1
7010145453,-6,10,0,0,-3,-11,0,-5
7010145453,0,-8,0,2,2,1,0,3
7010160461,7,-10,-1,-3,-3,-15,0,-6
7010160461,-2,13,3,1,3,19,-5,0
7010161253,-1,1,-1,-1,1,0,2,-2
7010161253,8,-11,-2,-6,-4,-1,-4,4
7010174807,18,-3,-7,0,2,-3,12,-4
7010174807,-16,10,7,2,-4,2,-16,1
7010182993,-8,1,-2,-2,-2,1,11,0
7010182993,-12,-6,-1,-1,-3,2,-7,-2
7010189822,2,6,-3,-5,-3,-5,1,1
7010189822,0,-19,-9,-4,1,-10,1,-6
7010205528,12,4,2,1,-1,3,-8,2
7010205528,-2,9,3,3,-1,-1,-2,3
7010212293,1,-8,13,2,2,6,6,-2
7010212293,-7,30,-11,-1,0,-10,-10,-7
7010219790,10,19,7,-6,-8,5,2,5
7010219790,-11,38,2,32,12,-7,-8,-7
7010234843,-16,-86,-39,-33,-6,-4,-11,-6
7010234843,-13,41,5,-29,-8,3,8,5
7010242971,15,28,5,-26,-2,-3,-3,1
7010242971,11,44,-22,-4,-11,2,0,-2
7010249767,-11,13,28,-2,-3,-3,-10,-8
7010249767,8,-27,-28,5,4,-2,4,3
7010265497,-13,1,33,-3,-11,-1,0,-3
7010265497,-4,-60,-12,-6,7,-3,-10,-1
7010272486,14,7,0,7,3,5,5,6
7010272486,-10,-10,8,13,-3,5,1,-2
7010279954,-24,-12,-30,-2,14,5,0,-10
7010279954,12,48,15,11,-6,-3,-5,-1
7010294916,-9,-17,-11,-1,3,1,-2,-2
7010294916,17,-41,-3,-9,-8,-13,-4,-1
7010303093,13,-37,-6,6,-2,0,-7,-2
7010303093,-11,15,-2,-14,-3,-2,-5,2
7010317441,5,30,23,24,1,4,7,-2
7010317441,-4,-3,-23,-28,-6,-7,3,2
7010325602,-10,53,-7,14,8,-1,-14,-6
7010325602,-3,-26,2,-9,-9,0,11,4
7010332305,26,73,9,1,-24,-12,-14,6
7010332305,-8,18,22,3,6,9,5,-7
7010339946,-1,9,-17,-2,19,-2,10,3
7010339946,-9,-31,-8,6,1,10,-11,-5
7010354933,-13,-28,-8,-5,-1,-4,-1,-2
7010354933,11,-34,4,-21,-7,-8,-2,2
7010363903,0,-40,9,44,2,14,0,3
7010363903,-8,2,-2,-21,12,-1,5,-2
7010377470,3,-10,-8,24,3,-5,-27,3
7010377470,-3,-30,2,24,-6,-12,-7,-3
7010386308,7,-6,5,7,-15,-5,0,-1
7010386308,5,-13,3,-25,-13,-7,9,0
7010392303,-13,-31,2,-13,26,23,6,-4
7010392303,-2,5,6,-2,-2,-3,3,0
7010408789,-12,-24,-11,5,-4,1,-3,-6
7010408789,11,-4,9,-4,-7,-2,-11,-1
7010414910,-12,4,-11,-1,-2,-11,15,-5
7010414910,2,16,14,9,4,9,6,2
7010423815,-10,-30,-11,-38,-8,-9,-3,-5
7010423815,-3,-22,-5,16,-3,-4,2,-2
7010437463,1,20,0,-16,-8,-7,4,0
7010437463,-7,-6,3,5,2,5,2,-5
7010446313,-4,-4,13,11,-7,-8,-7,-2
7010446313,-4,-10,-12,-19,10,5,8,-3
7010452428,7,18,-9,14,-2,-1,-31,7
7010452428,1,12,-5,2,2,1,2,1
7010468821,-2,3,-4,-1,7,-5,12,0
7010468821,3,16,-3,6,-4,6,-28,-2
7010475007,-5,0,8,2,0,-8,7,1
7010475007,-5,-1,2,-3,1,15,-2,-7
7010483785,-1,-4,-8,-17,-9,-5,-5,-2
7010483785,2,-1,-2,6,-4,-4,4,0
7010497438,-2,0,-4,-6,-3,0,-8,-3
7010497438,-10,2,-4,-3,-3,-10,-16,-2
7010506305,1,-2,1,-3,-10,-17,-11,2
7010506305,-6,-6,0,0,7,20,12,-5
7010512408,-2,-5,0,3,5,-10,14,3
7010512408,-3,-10,-2,0,-4,19,10,-5
7010528789,4,-4,-2,-2,2,4,-78,7
7010528789,3,-12,3,-4,-11,-25,7,-15
7010534931,1,8,4,0,0,7,9,6
7010534931,-1,-7,-5,8,5,-2,-24,5
7010543800,5,7,-1,-5,-3,-14,13,1
7010543800,-2,2,2,4,3,7,-5,0
7010557463,-7,-5,-2,-2,-1,-11,-26,-5
7010557463,13,16,0,1,2,5,9,2
7010566287,-3,3,-3,-3,1,10,21,3
7010566287,9,-7,2,2,-1,-8,2,6
7010572458,-10,0,-4,-4,-4,-1,7,-5
7010572458,-1,2,0,1,0,-6,3,0
7010588782,-6,-2,2,-2,2,4,10,-1
7010588782,-3,9,3,6,0,-1,9,4
7010594957,-9,8,-1,-3,-3,6,13,-3
7010594957,9,26,0,1,2,-10,5,6
7010603804,9,-15,20,11,4,10,18,2
7010603804,-14,-29,-18,-11,-7,-9,-15,-12
7010617453,-19,-49,-27,-12,0,4,5,-5
7010617453,7,-33,14,18,-4,-10,2,7
7010626312,9,62,1,1,8,3,6,-3
7010626312,35,-18,18,19,-9,3,-3,13
7010632456,-31,14,-14,-23,6,7,-2,-6
7010632456,36,80,3,-30,-12,-9,-3,2
7010648923,-49,-58,14,34,11,0,-3,-14
7010648923,-1,86,7,-44,-12,-2,-1,6
7010654976,-11,-40,-35,-26,-3,0,0,-5
7010654976,37,78,30,53,6,-5,0,8
7010663778,-14,45,15,-15,-6,-4,1,-2
7010663778,26,122,8,6,5,0,1,5
7010677455,1,9,-15,-51,-6,0,-2,-4
7010677455,-22,-30,-9,-45,-15,-6,-7,-5
7010686340,2,-19,10,52,0,1,-3,-3
7010686340,2,-18,-21,-11,10,7,1,6
7010692366,28,23,29,34,3,3,4,9
7010692366,0,-24,25,15,-15,-12,-14,-12
7010716988,13,96,-27,-38,-9,3,6,6
7010716988,-21,-59,-18,-4,14,6,7,1
7010717911,-1,1,13,24,2,-4,-8,-8
7010717911,-24,-38,-18,-10,-5,-3,-1,-6
7010723793,11,-8,0,-5,-13,-8,-8,-1
7010723793,17,-2,1,-1,-13,-13,-3,-5
7010737474,-6,14,9,7,-17,-13,20,1
7010737474,-14,-8,-6,30,47,33,25,15
7010746268,2,-23,-5,-6,33,32,8,2
7010746268,-4,-31,0,2,-19,-9,-15,-2
7010752296,11,1,6,4,-12,-1,7,-9
7010752296,-10,-12,-9,1,-4,-30,-11,-4
7010768768,0,-36,-32,-34,1,-3,13,0
7010768768,-22,-25,14,15,13,12,-4,-3
7010774867,8,9,11,30,4,-5,-1,3
7010774867,-9,-26,-20,-41,-22,-5,-6,-8
7010783786,9,-2,2,19,-5,-12,-3,5
7010783786,-12,-11,-6,-7,0,-5,-6,-12
7010797436,-2,-1,8,-5,-15,-6,-29,4
7010797436,-3,-13,-16,-7,5,-1,-4,-5
7010806275,-3,-14,3,11,8,2,3,-8
7010806275,-13,-4,1,1,-7,-6,0,-4
7010812420,20,26,20,32,13,4,1,4
7010812420,-8,0,-15,-8,6,19,1,-6
7010828782,0,2,-3,-22,-28,-19,-11,-2
7010828782,-9,-10,-15,31,9,6,-7,2
7010834957,10,12,-4,-10,1,9,10,3
7010834957,-1,5,-6,1,4,-7,-5,-3
7010843879,-18,-7,1,-22,-13,7,5,-7
7010843879,13,-2,14,11,0,-3,-4,2
7010857451,-17,-6,-11,2,11,-1,0,-5
7010857451,10,-3,6,12,-6,-6,-2,6
7010866312,1,-16,-13,-12,-3,-1,0,0
7010866312,-1,4,0,-2,-1,-10,4,-1
7010872484,4,-6,0,-7,-1,10,6,0
7010872484,7,-3,-5,-12,-4,-13,-6,-3
7010888832,-9,-13,2,2,-6,3,-4,-3
7010888832,-15,-7,3,1,5,13,-11,-10
7010894953,5,-6,-2,-4,10,5,-16,6
7010894953,5,9,-5,1,4,9,16,9
7010903784,8,-3,-3,3,-5,-14,11,3
7010903784,-4,5,4,-5,-1,21,2,-2
7010917441,-5,-11,-9,-6,1,-20,5,-15
7010917441,13,5,4,11,1,14,-7,10
7010926256,6,10,2,0,1,-5,4,-1
7010926256,-3,-10,-5,-11,-5,-3,-28,-1
7010932436,-6,-9,-1,0,-4,8,25,-12
7010932436,-3,-2,1,-2,-2,-4,-5,4
7010948804,1,-14,-5,-3,0,-5,6,2
7010948804,-1,-1,2,0,2,0,21,5
7010954935,9,6,0,1,-3,-4,-14,3
7010954935,-1,21,0,-1,-2,-2,1,-7
7010963779,4,12,4,2,3,9,1,3
7010963779,-6,-1,-5,0,-1,-8,2,-2
7010977461,-10,-3,-4,-6,-6,-3,-17,3
7010977461,-16,5,3,1,-2,0,3,-12
7010993083,23,-1,-9,-3,1,1,-2,5
7010993083,3,-17,0,4,0,-8,5,5
7010993786,-7,5,-9,-19,-8,-7,-8,-3
7010993786,0,8,1,5,-2,0,-2,-4
7011008789,-19,-28,-2,0,5,8,-5,-3
7011008789,-1,34,-5,-1,1,-7,0,-3
7011014912,1,-25,9,14,-6,-1,-3,1
7011014912,12,35,-7,2,9,4,5,2
7011023817,2,-69,-4,-4,-11,-11,-7,-1
7011023817,-14,-51,4,14,15,5,4,-5
7011037413,-1,14,-18,-27,-6,2,2,4
7011037413,-8,13,21,21,-18,-14,-9,-10
7011046320,7,-34,-35,-37,3,-3,-6,0
7011046320,27,31,2,-13,-10,0,2,3
7011052425,-42,-22,-18,-2,6,-4,-7,-3
7011052425,2,-30,6,-11,-11,-5,-5,-7
7011068795,-10,37,2,21,8,10,25,4
7011068795,17,-14,0,-13,-14,-10,-29,-7
7011074909,-11,-22,7,-2,6,-1,5,4
7011074909,-13,24,-13,1,6,8,-2,2
7011083813,8,59,28,17,3,-1,-4,-4
7011083813,4,-3,-16,-19,-2,-4,7,3
7011097467,21,21,28,25,-10,-3,-3,-1
7011097467,-34,-21,-40,-41,-4,-14,-5,-8
7011106316,13,-20,2,12,6,23,-3,3
7011106316,-1,31,10,-3,-1,-2,8,0
7011119775,9,-5,3,29,-2,-10,-6,1
7011119775,-17,-17,-9,-29,-4,-15,-27,-8
7011128787,-3,45,2,3,1,11,18,0
7011128787,-5,-5,-1,-1,5,1,4,1
7011143760,-3,-8,6,2,-8,4,-3,-5
7011143760,17,-25,-8,-8,1,-5,4,5
7011145265,-1,1,0,5,-1,-16,-12,0
7011145265,-30,-22,5,12,6,4,-3,-3
7011157440,23,29,-1,6,-5,-7,6,1
7011157440,8,-21,6,-5,11,21,21,7
7011166307,-7,-5,0,-5,-10,-15,-7,-3
7011166307,0,2,-16,-15,-8,-10,-3,-7
7011179823,-9,-14,-10,-7,-2,-3,-5,-6
7011179823,6,-8,16,17,-14,-5,0,0
7011188783,-11,-9,7,10,1,-6,-13,-11
7011188783,-2,-9,4,-2,11,12,8,6
7011203741,5,2,1,-1,18,9,2,1
7011203741,2,-3,-7,3,10,12,6,2
7011205320,-3,4,-6,-25,-21,-20,-10,-6
7011205320,-11,-16,-2,-2,-14,-6,-1,-4
7011226150,14,21,9,53,1,-1,-3,-3
7011226150,-4,-15,-2,-43,7,14,36,6
7011227767,-6,-2,7,-3,3,-2,-4,-2
7011227767,-4,-16,-19,8,-3,-14,-30,-2
7011239951,1,-2,-10,-22,3,29,6,4
7011239951,-1,6,15,24,3,-8,2,-4
7011248753,-1,16,-3,-2,-10,-21,-13,-3
7011248753,15,13,18,5,13,22,21,7
7011263580,-7,-6,-5,-15,-5,-8,-3,0
7011263580,-4,-7,-8,2,-7,1,-19,-7
7011265193,1,-8,-6,-9,1,-6,20,2
7011265193,4,13,3,6,-3,5,11,2
7011286289,-2,24,-12,-33,-12,-13,-2,-6
7011286289,0,-1,-4,16,6,8,9,2
7011287770,-3,3,1,4,1,9,-1,-1
7011287770,-3,-4,-3,-2,-4,-12,16,-6
7011299771,6,1,-4,-10,1,3,-52,11
7011299771,1,-1,6,7,-4,-12,-10,-4
7011308787,-5,-25,-4,4,0,-9,-9,-5
7011308787,-4,-7,-5,-6,-4,18,4,1
7011323761,-5,-12,4,-9,1,4,15,0
7011323761,1,-1,4,7,-3,-15,-21,-4
7011325244,15,17,3,6,9,12,8,4
7011325244,0,14,6,5,-2,9,-13,4
7011337487,1,-4,-1,2,1,-4,2,-6
7011337487,-6,-5,-3,1,-2,5,16,9
7011346246,-7,-6,-6,-8,-2,-12,8,-3
7011346246,-1,-9,-1,-1,-3,3,-7,-4
7011359914,0,-9,1,-2,1,-3,14,0
7011359914,7,7,-1,2,-3,0,-9,1
7011368752,-7,4,6,0,0,0,-35,-2
7011368752,-1,1,-6,0,-2,-8,11,3
7011383745,-10,-14,-7,-10,-4,0,-40,-9
7011383745,8,10,3,6,3,14,11,8
7011385244,1,47,8,10,2,2,4,2
7011385244,7,0,15,0,-7,-18,-15,1
7011397474,15,59,1,-20,2,2,18,5
7011397474,-8,43,-10,1,-2,-6,-31,-6
7011406271,-6,-80,11,7,4,15,4,1
7011406271,-15,77,-20,-18,0,2,10,0
7011419876,-1,29,30,32,-19,-10,4,-6
7011419876,-2,-46,-24,-36,22,3,2,-4
7011428765,24,43,-6,6,-20,-4,-9,1
7011428765,1,-54,-3,14,12,-8,-20,-4
7011443004,4,31,-10,21,8,3,15,4
7011443004,-19,-28,1,-2,-11,-8,-1,-5
7011449899,-18,-27,-11,5,1,-2,-12,-11
7011449899,42,-1,45,47,-7,-3,6,9
7011457335,-21,0,-71,-61,4,6,11,2
7011457335,-28,-66,11,12,-13,-3,7,-10
7011466265,16,32,2,-26,10,1,-28,-2
7011466265,14,-41,-13,-16,-15,-9,9,0
7011479882,-6,-7,51,33,7,-1,-9,-4
7011479882,1,41,-17,-31,-21,-10,-5,1
7011488771,-13,-36,-23,-36,-13,2,6,-3
7011488771,9,25,18,18,22,9,9,-1
7011503691,-4,-40,9,-6,9,0,4,3
7011503691,14,-3,-2,25,-1,-5,8,-5
7011505246,1,31,15,-35,-37,-15,1,6
7011505246,-23,9,-18,-18,-5,-6,-17,-11
7011517426,9,-12,5,35,39,22,28,6
7011517426,5,29,6,2,-2,1,8,-1
7011526285,-2,0,10,7,15,-1,4,3
7011526285,-11,-5,-14,-12,-4,10,7,-3
7011548692,-6,-16,-10,-9,-15,-23,-8,-9
7011548692,-5,-4,7,-10,-4,4,-14,-3
7011550279,17,-7,-7,16,7,1,23,8
7011550279,-22,-17,11,34,21,12,-50,0
7011563087,7,-9,-8,-8,10,3,15,-2
7011563087,0,-11,-7,-18,-1,-12,-16,0
7011569782,-5,-11,-12,-5,-15,-21,-8,-5
7011569782,-7,0,1,-10,-8,14,12,-5
7011577391,-9,-11,8,5,-7,-3,-11,-3
7011577391,6,8,5,13,9,-11,-1,4
7011586274,1,-7,-1,9,-2,23,11,-4
7011586274,-9,6,-1,-8,0,-14,13,0
7011600581,12,10,-7,-3,-12,0,-6,9
7011600581,1,9,7,6,-14,-5,5,-3
7011607375,0,16,15,10,17,9,-5,0
7011607375,6,18,-15,-20,2,-7,18,2
7011623092,-6,2,-4,9,-5,7,2,-3
7011623092,14,26,1,7,0,-4,-3,2
7011629809,-17,-28,-4,6,4,-3,-2,-8
7011629809,-5,-12,-6,-20,1,5,2,-2
7011637362,-10,-20,-12,-34,-14,-12,-4,-4
7011637362,-2,-4,0,4,2,3,-10,-5
7011646311,2,3,-1,1,-6,-5,4,0
7011646311,-2,-5,9,-3,-6,-31,0,0
7011660559,-2,-21,-10,4,5,34,31,2
7011660559,-2,-8,3,-2,3,11,-3,-2
7011667412,-6,-4,1,6,2,6,12,1
7011667412,-4,-14,-13,-2,-8,-16,-12,-7
7011683077,1,8,11,1,-8,-13,-8,-4
7011683077,-3,0,0,1,-1,3,-3,0
7011689902,-3,7,-6,6,6,-3,7,-1
7011689902,7,12,-1,0,-5,7,-1,1
7011697375,5,-6,1,-6,0,-23,-9,-1
7011697375,-14,-12,-3,7,5,22,9,-2
7011706266,9,2,-4,-2,1,-1,4,1
7011706266,-1,-4,-1,-4,2,8,-35,1
7011720580,16,-2,-8,-4,-7,5,13,4
7011720580,-15,-6,2,2,4,-10,-13,-8
7011727360,-4,2,0,-2,0,1,0,0
7011727360,3,-6,-7,-4,-6,-5,12,1
7011743061,-9,-10,6,4,0,-13,-5,-14
7011743061,22,9,3,4,3,11,21,16
7011749853,-9,1,-6,-5,0,9,-5,-6
7011749853,-1,-8,-2,3,-4,-28,13,3
7011766212,-7,2,-1,-4,-3,7,-2,-5
7011766212,0,-2,-6,-6,-2,-1,-13,-4
7011767722,3,-1,-2,-1,-2,-3,-4,0
7011767722,-4,1,-1,1,-3,0,6,-3
7011780609,-10,-11,5,8,7,-3,-4,0
7011780609,17,38,2,-12,-2,-1,5,6
7011787407,14,-36,-10,9,2,1,-5,4
7011787407,-4,34,12,2,-4,4,-9,1
7011803123,-28,-39,-18,-1,-3,0,-13,-7
7011803123,25,25,0,0,-2,-3,4,6
7011809850,-11,30,4,7,2,-3,-7,-6
7011809850,1,-40,-6,-6,-2,3,2,-2
7011826157,10,16,1,-17,4,2,-3,7
7011826157,-7,-10,-1,1,-2,-5,0,-7
7011827725,-9,26,17,21,-4,-5,-2,2
7011827725,10,6,-33,-24,2,7,2,-4
7011840597,13,4,22,26,-10,0,-3,5
7011840597,-25,-9,-6,-2,10,-3,-6,-7
7011847362,0,5,6,1,0,-2,-6,-2
7011847362,-13,25,-12,-17,-3,8,6,-1
7011863070,22,-26,-1,-1,1,-1,-10,1
7011863070,0,5,-1,0,-3,0,9,8
7011869862,-24,-1,9,18,-3,-7,3,-10
7011869862,19,10,-5,11,23,13,-10,0
7011886168,-1,14,3,6,-15,-11,3,1
7011886168,-7,-12,-12,-20,8,-2,-5,-5
7011887820,-9,8,-3,-20,-18,-12,1,4
7011887820,14,9,4,2,-5,9,3,-6
7011899841,-1,23,2,2,1,5,-9,9
7011899841,5,-2,8,13,3,7,-2,-5
7011908972,14,21,-8,-17,-9,-15,4,4
7011908972,-35,-25,10,16,6,-7,-3,-12
7011923114,1,-7,2,-17,-2,-2,1,3
7011923114,-7,-24,1,16,-7,2,8,-2
7011929840,12,-23,-28,-30,14,10,-11,-2
7011929840,7,-17,15,-1,-18,-11,7,6
7011946252,-4,-5,-7,21,17,17,1,-2
7011946252,4,-9,2,-1,9,-7,4,2
7011947747,0,-13,4,6,2,14,3,-3
7011947747,-7,-6,-11,9,-14,-16,-10,-6
7011959884,-2,12,0,-25,-7,-13,4,-2
7011959884,-16,-19,-4,-14,-22,-6,-2,-9
7011968750,3,-10,-2,-6,-2,4,4,3
7011968750,0,15,2,-11,11,4,0,-4
7011983059,10,8,-7,-1,-8,-9,-9,-3
7011983059,-14,-17,7,12,4,5,-1,-4
7011989812,-2,3,-21,-32,-8,-19,-2,-11
7011989812,-4,-2,8,2,-12,6,-37,9
7012006207,-12,-16,-7,-15,0,13,20,-9
7012006207,7,18,-3,-11,-13,-5,1,3
7012007725,2,11,8,15,-1,0,4,-3
7012007725,-1,-16,-10,-5,6,-9,6,2
7012019885,-9,1,-12,-12,-3,-13,-13,-7
7012019885,-4,4,7,13,1,4,-12,-3
7012028718,-12,-12,12,10,-6,-6,-12,-5
7012028718,0,-4,-20,-26,-2,-6,1,-5
7012043090,-6,-6,14,23,-1,1,-7,1
7012043090,2,-2,-21,-22,7,-4,6,-1
7012049901,19,2,-7,7,1,4,-15,6
7012049901,-17,6,26,19,0,5,9,-2
7012066231,-1,-4,1,-3,-6,-11,-3,-2
7012066231,3,12,-5,-3,-3,1,-5,-7
7012067729,0,-3,3,-3,-3,-6,13,-1
7012067729,-1,-12,-10,-3,3,6,-41,7
7012079746,4,15,-1,-5,4,-11,26,-1
7012079746,6,-7,-4,8,1,15,-8,-2
7012088804,-3,-11,-3,-6,-3,-13,-8,-1
7012088804,3,0,4,1,-2,11,30,-3
7012103529,-8,-1,-6,-2,-1,-15,-7,-2
7012103529,6,-14,2,2,-1,-13,4,3
7012109753,-20,-28,3,1,2,9,-2,-6
7012109753,13,-3,-4,-2,-7,-8,24,3
7012126113,4,-6,-1,0,1,2,-19,-1
7012126113,6,-2,-2,4,-1,12,13,1
7012127702,-2,3,2,0,7,-3,9,1
7012127702,-6,5,-3,-2,-1,-2,4,-7
7012139914,1,16,1,3,3,0,-9,1
7012139914,-7,4,-3,-3,-4,-18,5,-4
7012148710,-5,-16,-11,-3,1,8,8,-2
7012148710,2,50,16,5,-2,-5,2,0
7012163009,1,-84,-18,-10,-5,-1,0,-2
7012163009,-20,53,12,3,-1,-5,-6,-2
7012169884,-1,-25,-9,-5,-5,-6,-9,-9
7012169884,14,17,-3,-2,-3,-1,0,7
7012186145,-10,23,-3,-2,3,11,-5,-1
7012186145,-1,18,8,-8,-15,-7,10,-1
7012187715,6,45,5,13,8,6,-2,2
7012187715,11,-3,-19,-26,-6,4,3,1
7012199745,-20,-61,-2,4,9,0,-4,-6
7012199745,21,27,33,5,8,6,2,7
7012208740,2,-87,-21,8,-14,2,-25,-7
7012208740,-35,58,-48,-61,-2,-8,-16,-16
7012223060,52,113,49,47,-8,1,2,9
7012223060,-52,-61,15,37,5,-15,-12,-14
7012229737,-25,-3,-47,-73,-8,5,-2,-10
7012229737,38,-53,46,54,6,7,16,23
7012246188,5,-19,-49,-19,-1,-1,-10,-4
7012246188,20,36,0,-1,0,2,11,9
7012247740,-30,-6,34,11,-10,-12,7,-6
7012247740,-1,5,0,-17,-16,-8,-28,-12
7012259910,-16,-24,27,14,15,19,13,8
7012259910,24,0,-4,25,1,2,-13,8
7012268703,-3,8,-14,-27,2,8,7,3
7012268703,-3,1,8,-11,-1,-4,8,-5
7012283057,-3,17,10,2,-20,-5,1,1
7012283057,-6,-24,-25,-22,1,4,24,0
7012289763,15,39,6,51,39,3,6,9
7012289763,-12,2,12,14,7,12,-5,-1
7012306251,-2,13,-14,-12,-15,12,-12,-8
7012306251,-2,-11,-23,-27,-23,-31,-40,-8
7012307788,9,30,7,-10,-15,-7,-11,8
7012307788,-7,-36,-1,10,-14,3,10,0
7012319853,-6,0,4,16,43,-8,21,-6
7012319853,12,-2,-2,-26,-1,28,-2,10
7012328786,-1,-10,19,53,27,-11,11,1
7012328786,5,-19,-18,-26,-18,-3,-10,-2
7012343004,-19,-1,-7,-14,-13,-3,11,-5
7012343004,-7,-20,-17,-17,-5,-7,3,-8
7012349745,15,-7,-8,-11,12,5,-14,-1
7012349745,-10,-7,-4,11,-7,8,4,-2
7012366147,7,14,-3,-10,-5,-8,-2,3
7012366147,5,3,-5,6,8,0,4,2
7012367700,1,4,2,-5,-7,12,1,2
7012367700,-10,-5,5,22,2,-5,1,-3
7012379909,-12,-20,7,-12,7,4,-9,-3
7012379909,-3,6,8,-5,1,6,-6,-4
7012388752,14,29,13,3,-5,1,1,11
7012388752,-6,-5,-15,-8,9,-6,0,-3
7012403062,8,15,1,-2,-12,-12,-9,-4
7012403062,-8,-6,-2,-4,4,-4,-7,-7
7012409899,-7,-16,-10,-13,-1,11,9,1
7012409899,-4,-20,-3,-3,2,-14,-1,-3
7012426084,-9,-1,0,9,-10,3,-2,-4
7012426084,-3,-3,-12,-11,-6,-9,-3,-3
7012432385,9,3,9,-7,-4,-6,-5,-3
7012432385,9,6,4,17,7,5,-16,3
7012439938,-2,-3,-10,-12,-9,0,14,1
7012439938,-3,-4,3,11,-1,-6,-3,-8
7012448741,3,3,-3,-1,-5,10,2,3
7012448741,13,-4,4,3,1,-16,-2,-2
7012463068,-25,-1,-4,1,2,-19,1,-5
7012463068,-2,-5,-9,-7,0,35,-40,5
7012469908,-6,6,-1,-2,-7,-5,-10,-3
7012469908,-14,0,6,5,0,-19,-7,-9
7012486179,19,2,-10,-14,-4,-5,32,10
7012486179,2,-4,2,6,2,-14,-18,-8
7012487751,2,-9,-2,0,-4,7,12,4
7012487751,7,17,7,3,5,0,8,4
7012499856,-11,-2,-4,-6,-3,4,-39,-9
7012499856,2,13,2,1,-5,-9,13,5
7012508739,3,2,4,5,0,1,7,4
7012508739,8,-1,-4,-2,1,-12,0,-1
7012523010,1,-6,-6,-3,-2,12,-3,-2
7012523010,-8,10,6,4,1,10,12,-1
7012529771,2,2,1,1,3,-9,-21,1
7012529771,-11,-10,-1,0,1,11,3,0
7012545509,-2,26,-5,-3,-3,-9,-8,-2
7012545509,-4,-14,1,-2,-9,-8,-2,-3
7012552294,-14,3,2,4,5,8,17,-6
7012552294,9,-19,-3,6,11,2,11,3
7012559753,-19,-9,-7,-5,-7,1,-10,-5
7012559753,9,40,2,-1,-5,-4,11,-2
7012568709,16,-2,-5,-6,-9,-18,-1,7
7012568709,-4,1,5,1,-1,11,-8,0
7012582989,-15,9,-1,-2,3,2,-9,-5
7012582989,-4,-23,-10,-10,3,1,6,1
7012589834,-4,11,8,21,2,-7,-1,-7
7012589834,-4,16,12,16,-3,0,0,2
7012605449,40,-12,-11,-25,0,4,1,4
7012605449,-24,9,3,6,1,-8,2,1
7012612346,-18,1,9,-15,-14,-7,-9,-6
7012612346,8,-32,-13,27,15,15,5,-3
7012619740,-10,-5,18,7,-1,-6,1,2
7012619740,9,-27,-14,-33,-10,-1,6,4
7012628714,15,-58,-11,-10,1,10,-4,-5
7012628714,-11,47,11,-8,-18,-10,12,-5
7012643050,8,-8,5,40,15,0,-17,-4
7012643050,-16,-16,-10,-1,8,4,7,6
7012649754,-2,23,0,2,-13,-7,-4,-4
7012649754,9,9,9,-15,-1,4,1,2
7012665591,24,9,2,3,-5,-8,-3,3
7012665591,-14,-1,5,12,8,4,-8,-5
7012672386,3,9,-2,-13,-12,-14,-3,-1
7012672386,-7,-8,-7,5,10,13,-11,0
7012688670,4,7,0,-2,14,15,8,4
7012688670,4,-21,-11,20,5,2,1,-3
7012690186,3,10,21,-5,-15,0,10,0
7012690186,-8,-23,-38,-11,35,-15,-9,-2
7012703000,-12,-16,-6,-4,-24,-8,1,-8
7012703000,7,1,9,10,8,14,2,1
7012709772,10,4,-3,23,-3,-10,4,4
7012709772,-11,9,15,-16,0,-1,-15,-10
7012725574,-6,0,-7,-18,-24,-2,-9,-9
7012725574,16,3,2,-10,-28,-27,-3,6
7012732384,-6,1,-3,20,28,16,-2,1
7012732384,-9,-4,-8,32,4,-3,8,-2
7012748735,0,-2,-12,-7,16,-1,7,2
7012748735,14,14,7,8,-6,15,-6,-2
7012750221,-11,-3,10,-2,-12,-13,-7,-3
7012750221,4,-2,-23,-37,-19,-5,3,0
7012763040,-8,-5,-26,-41,-1,13,2,-2
7012763040,8,10,3,12,-1,-14,-3,-1
7012769829,-15,-6,-19,-25,-13,-15,13,-8
7012769829,-4,13,3,7,5,9,-2,0
7012785554,7,5,16,22,-4,-2,-7,2
7012785554,-6,4,-2,0,13,-1,-1,-5
7012792334,5,20,-21,-13,9,9,-4,1
7012792334,10,9,2,1,-17,5,3,5
7012808683,7,19,19,-2,1,-13,-4,3
7012808683,-8,5,13,38,23,2,5,0
7012810172,-2,-2,-9,-1,-2,2,-12,-6
7012810172,-1,-6,5,-3,-6,-6,4,0
7012822287,-8,-6,-5,-8,-6,4,5,1
7012822287,9,2,-10,-18,-2,1,-6,-7
7012831240,-16,3,3,0,6,6,-1,5
7012831240,1,6,12,3,-1,-11,-26,6
7012845556,-12,-13,2,0,-8,-29,3,-17
7012845556,15,9,1,-4,2,22,14,26
7012852301,-8,-13,-1,-1,1,-7,-2,-14
7012852301,-14,-9,-3,-4,-9,10,0,-14
7012868740,-1,5,1,3,3,-2,-38,1
7012868740,0,-19,-4,-8,-7,-12,-16,-1
7012870242,13,-4,-3,-2,1,-2,1,4
7012870242,4,-10,3,3,4,2,19,5
7012882303,3,-8,0,3,-2,-4,-4,5
7012882303,-4,-8,-2,-10,-1,-7,-3,-16
7012891220,-14,-24,6,8,6,15,1,5
7012891220,13,10,1,-9,-9,-10,-5,2
7012905514,26,0,-6,-3,1,4,18,3
7012905514,-41,4,5,11,4,-2,6,0
7012912326,-8,-8,4,2,-4,-3,10,-2
7012912326,4,-9,-10,-6,0,-5,-6,-7
7012928438,-7,-13,-4,-3,-3,2,9,7
7012928438,10,-6,1,-12,-6,5,2,3
7012934858,1,31,2,8,-3,-2,-31,-8
7012934858,-25,2,12,3,2,14,18,-4
7012942357,-7,-15,4,11,-17,-15,-4,-3
7012942357,8,29,-36,-41,12,10,-7,-6
7012958745,15,0,-12,1,-10,7,7,3
7012958745,0,-30,22,23,3,0,-2,12
7012965511,7,1,22,37,33,6,6,2
7012965511,5,6,-7,-9,-8,0,10,-5
7012972293,-4,-54,-12,-19,-10,-11,5,3
7012972293,-18,-67,-6,-5,1,-1,-21,-5
7012987874,-3,-6,1,-15,-7,7,-1,-8
7012987874,17,7,15,46,-15,-15,-8,8
7012988819,-13,-14,-34,-52,17,8,1,-7
7012988819,18,-2,17,14,-10,-6,-1,-1
7013010471,-31,2,-3,-2,1,3,9,10
7013010471,-1,-26,-22,-12,13,-1,-25,-8
7013011168,37,40,29,2,-7,-2,2,3
7013011168,-39,8,-21,-34,-19,-19,-4,-5
7013026192,12,-18,-12,-41,4,15,-1,1
7013026192,-14,6,10,41,4,-7,11,-1
7013032361,2,12,35,9,-5,-14,-6,2
7013032361,-2,25,-19,16,25,14,9,1
7013047984,6,36,-12,-18,-2,4,-15,-4
7013047984,-3,3,16,4,-5,-16,15,-5
7013048663,-13,-6,-6,-20,-8,2,-40,1
7013048663,11,17,6,16,-13,1,19,-1
7013070431,-3,-1,-7,0,1,1,12,-1
7013070431,-10,-29,-4,-15,-8,-10,-26,-11
7013071194,-2,-12,-1,23,-5,-19,-6,-4
7013071194,9,6,-8,-13,-11,2,12,5
7013086190,0,-12,3,21,42,3,3,-5
7013086190,-2,-10,-3,-31,4,7,7,-1
7013092361,-17,-7,-6,22,4,9,18,-4
7013092361,9,1,2,1,6,-1,-10,0
7013107876,-12,-10,8,-9,-13,-6,-7,-7
7013107876,1,-6,-10,-1,-8,-18,1,3
7013108716,-2,-1,-7,-20,3,13,-1,-4
7013108716,0,7,-9,0,-1,-5,-10,-2
7013130508,-7,2,17,34,-21,-8,-9,-6
7013130508,5,3,-18,-21,2,-2,-12,1
7013131217,7,-5,-17,-1,-6,3,25,5
7013131217,4,16,20,2,-6,3,-15,-3
7013146227,2,12,-5,-4,8,0,3,1
7013146227,-14,-31,-11,-19,-13,10,7,-4
7013152322,3,2,0,11,10,3,5,-1
7013152322,0,8,2,12,7,0,0,-1
7013167995,6,3,-10,-24,-10,-4,2,2
7013167995,-7,1,11,14,2,-2,1,-3
7013168712,-4,-7,-4,-11,1,1,-4,-1
7013168712,0,-1,-4,-6,-5,-4,-3,-3
7013190508,11,5,2,0,-6,-3,-1,-1
7013190508,1,-7,5,16,6,-2,2,-2
7013191190,-11,0,3,8,-2,-8,-13,-2
7013191190,-4,-8,-14,-18,1,3,0,0
7013206195,-8,-7,-3,9,11,17,3,-3
7013206195,14,5,6,-8,-4,5,6,1
7013212363,-4,4,-1,3,-6,-5,1,0
7013212363,5,1,-6,-15,-10,-15,-18,-2
7013228069,-11,0,-8,0,2,3,25,4
7013228069,5,8,3,6,-6,3,1,-3
7013228708,-9,-5,4,-2,0,0,-23,-3
7013228708,3,0,-3,-1,2,-10,3,-1
7013250433,-3,-1,-5,-1,-7,2,-7,-7
7013250433,-1,5,7,5,0,-15,-2,1
7013251318,11,13,-2,-4,1,8,23,2
7013251318,-5,-2,0,-7,-1,-4,-5,-9
7013266196,0,0,7,8,-5,-7,-20,6
7013266196,3,4,1,-1,1,12,1,-2
7013272372,-12,-7,-6,-1,2,1,-8,-1
7013272372,2,3,3,2,0,0,0,-2
7013288009,7,1,-7,-10,-7,-12,-5,-4
7013288009,-10,-5,3,11,-4,-3,20,3
7013288701,8,-3,-6,-3,6,2,2,2
7013288701,-4,6,5,0,-2,0,0,1
7013310481,-3,-2,2,8,5,1,3,-3
7013310481,-1,-8,-2,-11,5,4,-2,5
7013311205,-6,10,18,14,-3,-1,6,4
7013311205,3,-5,-3,-4,0,-1,9,3
7013326215,-8,-2,-11,-6,-3,-4,-4,-1
7013326215,-5,-10,2,8,-11,-1,-6,-3
7013332333,2,-2,-13,-4,13,-2,0,-4
7013332333,0,2,-1,-4,1,6,-2,-1
7013347970,7,11,25,13,-1,1,0,1
7013347970,6,8,13,-7,-9,-2,-9,0
7013348751,-8,-6,-38,-16,3,-3,2,-3
7013348751,12,4,9,-1,-10,-4,1,2
7013370495,-2,1,-10,-11,5,2,-2,-2
7013370495,3,12,7,21,10,3,0,-3
7013371172,-1,7,13,14,-12,-5,-3,-1
7013371172,-7,-16,-18,-40,7,-15,-1,0
7013386196,-2,-7,-9,-6,-4,19,-4,2
7013386196,13,5,7,2,4,-2,-2,-1
7013392334,-5,3,0,-9,-1,8,2,4
7013392334,-4,3,7,33,7,4,-9,-9
7013407983,3,-3,1,-21,-14,-12,-1,2
7013407983,1,1,-10,-25,-3,-4,-3,-3
7013408678,-17,-6,8,5,8,-2,-2,-4
7013408678,9,-3,-8,0,-4,6,-1,-1
7013430388,11,9,-7,-7,0,-5,10,7
7013430388,-3,-6,-6,2,-7,8,-21,-9
7013431210,10,7,4,-10,-18,-10,-3,7
7013431210,-17,-1,3,2,-1,0,-13,-5
7013446191,2,5,-3,5,10,-5,-12,-3
7013446191,-9,-3,-5,-6,4,8,20,1
7013452364,4,-3,7,11,-2,5,-1,-3
7013452364,-3,10,-3,-1,1,-2,-5,-4
7013467243,-6,-25,1,32,1,-20,-8,1
7013467243,-8,-3,0,-18,-13,-2,-8,-1
7013491874,3,-1,8,7,19,3,5,-2
7013491874,0,2,-14,-7,-7,-11,3,1
7013493396,3,-3,5,3,-12,0,1,-7
7013493396,1,-4,-11,-5,2,4,15,9
7013494295,11,-2,-1,-3,0,-4,-8,-3
7013494295,-7,-5,8,7,2,-4,6,3
7013506214,-16,-3,-13,-10,-5,20,3,-2
7013506214,-14,-15,-11,-9,-9,-12,-27,-6
7013512290,-1,0,8,5,-13,-7,12,-9
7013512290,9,-2,-9,-11,6,3,-31,10
7013527209,-5,6,10,26,4,0,-7,-5
7013527209,0,4,-13,-16,-2,-5,2,-2
7013534828,9,1,-6,-6,9,1,5,7
7013534828,2,8,17,11,-8,5,3,-2
7013550501,4,10,-7,-15,5,-1,20,6
7013550501,-11,-3,12,23,2,2,-7,-4
7013551195,8,5,-6,-9,3,-1,-3,1
7013551195,-7,-11,1,-21,-10,-11,8,-2
7013566216,-9,-2,-3,8,-6,-8,-15,-5
7013566216,8,10,-1,10,8,-4,8,1
7013572355,-5,-3,-5,-6,-7,1,-4,-5
7013572355,-3,3,2,-3,-6,1,6,-4
7013587333,-3,0,5,-5,-5,0,15,-1
7013587333,7,-2,-3,3,5,-9,0,0
7013594817,-3,-1,-4,-5,-2,9,-13,-1
7013594817,-11,-2,-8,3,4,2,18,0
7013610470,8,3,-3,-9,-9,0,-39,2
7013610470,-4,6,11,9,12,9,22,2
7013611139,-2,-2,7,9,6,5,-2,-3
7013611139,4,-6,-8,4,6,10,3,-6
7013624807,-19,-16,-3,-13,-11,-17,-12,-7
7013624807,1,-7,1,7,6,0,10,5
7013632319,6,7,-5,-5,-7,6,1,2
7013632319,-2,-3,0,0,-4,-6,-5,-3
7013647311,10,-4,6,2,8,-3,7,5
7013647311,-3,-2,1,-9,-5,10,7,-11
7013654832,5,-4,3,5,-2,-15,-4,4
7013654832,-19,-11,-8,-1,0,24,36,-9
7013670510,13,9,-5,-3,0,-6,-2,30
7013670510,-23,-11,-2,-6,-7,7,-9,-11
7013671173,-1,-12,-5,-2,-2,-2,5,4
7013671173,8,4,5,1,-1,-18,-6,-10
7013684886,1,8,-3,-2,4,7,-11,5
7013684886,12,1,-2,-4,-5,20,-1,-2
7013692326,-2,-9,1,5,-4,-24,3,-4
7013692326,0,-2,-1,5,0,-5,-17,9
7013707285,10,16,-1,-8,1,11,18,-13
7013707285,-20,-41,0,7,-3,-26,-10,10
7013714767,-1,50,16,-1,-1,10,-8,-7
7013714767,22,47,0,-7,1,0,4,17
7013730352,-8,-53,-1,17,5,-13,-1,-7
7013730352,-18,-15,8,-2,2,3,-12,-5
7013731229,20,69,-22,1,-7,2,-1,0
7013731229,8,59,38,15,-6,-11,2,7
7013744812,-29,-80,-49,-20,9,14,5,-15
7013744812,47,105,-6,-3,11,4,16,15
7013752332,-48,-31,29,-41,-16,-7,-4,-13
7013752332,11,11,-19,-6,2,-3,-8,2
7013768698,-21,-8,18,41,-10,-3,-11,-13
7013768698,15,-36,-43,-66,-12,6,3,5
7013774816,7,-21,-8,10,-3,-8,-13,2
7013774816,53,93,13,-40,-4,3,-11,6
7013790499,-73,-18,10,71,-5,-5,3,-17
7013790499,-25,-29,1,-30,4,-9,-7,-5
7013791135,8,-9,-11,-18,8,2,7,1
7013791135,18,-18,-10,-16,7,1,7,13
7013804792,30,-1,-7,0,-5,3,1,-1
7013804792,-10,34,22,31,2,-14,-26,-3
7013812317,-16,-21,-7,-2,-14,-2,-5,-3
7013812317,-16,-46,-12,-4,-12,-9,-1,-15
7013827315,1,33,27,1,-4,-7,-19,2
7013827315,5,-4,-23,-5,-2,19,33,7
7013834818,23,24,-1,5,28,-6,8,2
7013834818,-28,-45,-9,22,-9,12,-9,-4
7013850506,25,52,0,-27,6,-24,1,-3
7013850506,-4,-4,29,20,2,13,26,-8
7013851202,4,-17,-11,25,13,1,12,8
7013851202,-15,-4,9,33,-9,-15,20,-2
7013864762,8,-11,-16,-47,2,17,-11,0
7013864762,5,-17,-4,-17,-2,-25,-10,-2
7013872281,-8,-29,-5,-1,-17,-11,-14,-8
7013872281,-19,-43,-11,-10,-14,1,-14,-14
7013887337,19,15,8,-14,11,13,9,9
7013887337,-13,-14,12,63,11,0,-11,-7
7013894673,1,-2,-20,-11,1,-6,-3,1
7013894673,-7,-20,4,6,-3,0,-9,-2
7013910470,14,19,-1,2,-4,5,13,6
7013910470,8,17,-12,-22,-10,-13,-13,-2
7013911166,-5,1,18,22,-3,8,-2,-2
7013911166,-4,-12,7,4,15,-3,7,1
7013934386,8,16,-11,-17,-6,-2,4,3
7013934386,-9,-11,-9,3,-1,0,-8,-2
7013936447,2,4,1,4,-2,-13,8,2
7013936447,-7,0,13,5,3,7,0,-2
7013949185,-7,-5,-7,-7,-1,3,7,-5
7013949185,8,10,-3,6,-5,4,-7,0
7013954914,-1,-7,-2,-9,-5,-13,-2,0
7013954914,0,-12,-10,1,1,-5,-6,-3
7013970429,-9,9,9,3,-1,-16,3,-5
7013970429,-10,-7,-4,-7,-10,9,-2,-3
7013971118,5,3,0,-5,-3,9,1,2
7013971118,-4,-2,-6,1,4,2,-7,-1
7013984792,5,0,-4,-7,-11,-4,1,1
7013984792,4,1,-2,2,4,-10,-5,1
7013992277,6,0,0,3,2,5,-8,-4
7013992277,-37,-2,1,-8,2,2,0,-5
7014007136,8,1,0,-7,-5,10,-6,1
7014007136,-1,-1,1,6,1,-4,-16,1
7014014594,-1,-1,4,3,-2,-7,-17,-2
7014014594,-5,-14,-10,-12,-1,8,48,3
7014030297,-2,-1,3,-3,-3,-6,-6,-4
7014030297,12,9,8,8,2,-8,-1,3
7014031153,-3,-2,-6,-8,-3,8,2,-7
7014031153,18,6,-4,-3,1,-8,-18,2
7014044795,-13,2,4,4,2,6,4,-4
7014044795,13,0,-11,1,-3,1,5,-1
7014052275,-15,-9,-1,-2,-1,-1,1,2
7014052275,-1,-14,-1,3,2,8,-4,0
7014067307,7,-3,0,3,4,-4,21,5
7014067307,-2,-2,1,-7,-6,-16,-43,-8
7014074769,-6,-16,-5,-5,-1,10,26,1
7014074769,-8,-6,-9,-3,-1,5,-7,0
7014090392,4,0,3,5,0,-3,-6,1
7014090392,-8,3,17,-5,-7,-6,1,-3
7014091193,0,-2,-8,0,1,-1,-4,-2
7014091193,11,0,-6,8,5,3,-5,0
7014104760,-10,-3,-7,-11,1,-3,9,-1
7014104760,-14,-5,-2,-2,-6,-1,1,-7
7014112163,4,11,-5,-2,-4,0,-9,-3
7014112163,11,2,-3,-9,-16,-10,-6,-1
7014127167,1,-12,3,26,14,3,-9,0
7014127167,-2,2,-1,-3,-2,1,10,2
7014134648,-12,-17,3,11,7,8,1,3
7014134648,5,18,0,-3,4,2,-3,-3
7014150423,3,-4,21,13,-3,-2,-3,1
7014150423,-15,-38,-28,-19,-8,-1,4,-2
7014151236,17,20,14,-13,-9,-7,0,1
7014151236,-25,-38,-44,-34,-1,-6,-9,-8
7014164766,3,12,-2,12,3,1,-2,0
7014164766,6,-8,10,11,6,8,12,5
7014172306,2,0,-7,-11,-8,-4,-9,-4
7014172306,20,21,14,15,11,9,2,6
7014187293,-17,16,-3,-22,-8,-3,-3,-4
7014187293,-12,-15,-9,21,-2,-2,-1,-4
7014194820,14,-13,3,-15,-1,-2,-1,1
7014194820,-13,30,7,-3,0,-4,-1,-2
7014210453,11,-2,-10,-5,4,1,-3,-3
7014210453,-6,17,5,8,3,10,15,2
7014211117,12,-26,-1,-3,-14,-13,-10,5
7014211117,1,1,-7,-3,-2,5,-1,0
7014224812,-8,-2,-3,-10,-1,-10,-15,-12
7014224812,3,-5,3,0,5,-13,-14,0
7014232282,-12,22,7,12,9,18,0,-6
7014232282,-3,-6,6,5,-3,-7,3,-2
7014247178,3,-6,0,-7,-15,-5,-16,9
7014247178,13,11,4,-11,-3,3,2,0
7014254781,-5,-2,-1,22,19,4,26,1
7014254781,0,-7,2,-6,-11,-24,-16,-1
7014270471,-7,-23,1,-5,0,0,-3,4
7014270471,1,4,-8,14,-7,2,2,2
7014271119,-10,4,4,-8,13,-4,-7,-3
7014271119,-4,-17,0,-10,-14,-1,2,-9
7014284752,7,-2,-4,9,-12,-5,2,-1
7014284752,8,6,-18,-40,3,-6,-5,-1
7014292297,2,32,-5,28,0,-5,-2,-1
7014292297,-3,-17,4,-24,-1,-4,-4,-2
7014307263,11,0,-17,-35,-5,-2,5,1
7014307263,-19,4,23,19,10,13,7,-3
7014322980,8,3,-12,-6,1,-4,-6,2
7014322980,0,9,6,6,6,5,2,0
7014331786,1,21,0,-1,-10,-2,3,-1
7014331786,11,4,7,17,4,-2,2,-3
7014332603,0,6,-7,-14,-11,-18,-7,-1
7014332603,9,18,10,15,3,18,5,6
7014344636,-6,-1,2,5,6,-7,4,-3
7014344636,-3,-3,-9,-13,-6,11,-10,-4
7014352186,-8,-11,11,14,-5,3,-4,0
7014352186,-9,-20,-9,-11,-12,-23,-19,-8
7014367217,6,7,-3,5,6,-4,-3,2
7014367217,0,2,0,-6,2,-3,-8,-3
7014374687,-5,-2,2,1,0,-2,-21,4
7014374687,1,6,4,6,1,-13,7,-1
7014390393,-9,-7,1,2,6,24,14,1
7014390393,9,8,3,-2,-7,4,-17,1
7014391089,1,-11,-2,-11,-6,6,6,-4
7014391089,-3,-7,-2,12,9,-2,-2,5
7014404708,2,-6,-4,-1,-2,-3,16,0
7014404708,5,-14,3,1,-2,-5,16,1
7014412245,-9,-20,-9,-10,-3,-2,-6,-9
7014412245,7,-4,3,2,0,-17,31,4
7014427213,-11,-10,0,-1,3,43,10,-13
7014427213,-1,-8,3,-3,-4,-16,-11,22
7014434687,-10,-4,-3,-4,-4,-2,12,-13
7014434687,15,-4,-5,0,3,10,10,21
7014449731,-4,-3,1,-3,-3,-19,-38,-10
7014449731,-6,-7,-3,2,4,10,19,-9
7014457906,2,-7,2,-4,-4,-12,3,-2
7014457906,-3,-12,-3,1,-2,7,-16,-2
7014464643,-4,0,-1,-1,0,-10,10,5
7014464643,21,9,-4,-5,-4,14,-18,0
7014472267,-20,-13,-1,1,1,-9,-5,5
7014472267,16,51,10,2,2,17,1,-5
7014487118,-2,16,10,6,0,8,-1,-1
7014487118,-25,-65,-18,-9,-6,-17,10,-1
7014494743,37,97,17,3,2,11,6,9
7014494743,-32,-66,-10,0,-4,-2,10,-9
7014509740,-16,9,-10,-8,2,-11,-17,3
7014509740,-47,-55,-8,3,-1,-5,-5,-13
7014518070,19,-33,-3,-8,-11,2,7,-3
7014518070,2,0,-48,-47,-12,-15,-16,-5
7014524763,0,-31,23,33,-5,11,27,14
7014524763,-21,-20,1,-75,26,2,3,-7
7014532241,15,-46,53,-28,-7,8,-3,6
7014532241,-15,-51,-95,-3,7,-9,0,-10
7014547306,21,44,-33,-42,-38,-16,-21,-6
7014547306,38,39,27,18,-10,-1,5,9
7014554752,-43,32,15,38,16,9,8,-5
7014554752,24,45,-4,-21,13,12,-13,6
7014571167,-7,28,42,57,6,-2,5,1
7014571167,19,3,-22,-40,-6,-4,8,1
7014578003,-7,11,-1,-5,-5,-8,-10,-11
7014578003,-1,39,46,22,-2,-5,-1,-7
7014592641,-8,-22,-28,0,6,3,-22,6
7014592641,6,35,16,25,-16,-24,6,-3
7014600483,-3,-13,-22,-15,-1,-17,-29,-9
7014600483,-2,13,14,10,16,58,61,10
7014607190,0,-16,5,-9,4,-7,9,-3
7014607190,8,22,6,11,-4,-5,-2,5
7014614806,-2,17,-21,-7,-11,1,22,-8
7014614806,-8,-9,12,12,5,-15,-56,4
7014629764,9,2,2,-4,-1,16,8,2
7014629764,-6,11,-2,18,18,16,3,0
7014637950,-9,-43,-20,5,-16,-13,3,-3
7014637950,11,-23,18,-3,-1,-11,-13,-7
7014652928,-2,-24,5,19,4,-1,5,-2
7014652928,-22,-9,-19,-12,-9,-5,-8,-11
7014653646,-2,-37,-1,2,14,6,-2,2
7014653646,-5,-9,-6,-50,-26,-11,-2,0
7014667301,7,1,3,-1,4,-1,3,-2
7014667301,12,5,-3,-15,-15,-5,-5,-5
7014674782,0,10,-6,17,8,-1,-1,6
7014674782,-11,1,15,27,1,1,2,-3
7014689756,-5,-11,1,-10,-3,-8,5,-4
7014689756,-15,-7,17,8,7,1,-7,-6
7014697921,17,27,-1,24,1,3,-2,7
7014697921,-8,-4,7,-40,7,-2,-3,-5
7014712810,-1,-21,-9,-6,-2,0,-7,-1
7014712810,7,21,23,34,-7,-9,-3,2
7014713660,-4,-10,-9,-15,-3,-2,-4,-1
7014713660,-5,-1,0,25,-9,-4,0,-6
7014727211,-2,-5,2,-1,-8,-14,-11,-4
7014727211,6,8,-16,-21,7,-13,-1,1
7014734792,-8,-7,6,-1,5,36,21,2
7014734792,-5,-12,-5,7,-8,1,-20,-2
7014749754,1,2,-4,-14,0,-3,2,-1
7014749754,2,3,-4,13,2,4,-2,-2
7014757982,-1,-1,1,1,8,4,-6,1
7014757982,2,8,10,10,-2,-4,15,-1
7014772829,-9,-13,-2,-4,0,-4,1,-6
7014772829,-1,-6,-9,4,4,10,27,6
7014773616,1,9,-4,-10,-2,-14,-13,-1
7014773616,3,-2,-1,6,-4,7,4,-1
7014787273,-4,11,-6,-10,-6,-27,0,-6
7014787273,-4,7,-1,-2,-1,19,-9,3
7014794768,-14,-27,-9,-12,-6,-6,7,-4
7014794768,16,12,3,7,-2,-10,-9,-5
7014809764,3,9,-1,-7,3,5,43,9
7014809764,-9,-17,-3,3,-2,0,-14,-9
7014817986,6,7,-8,-4,-6,-11,-12,6
7014817986,0,-1,6,9,0,-1,-1,1
7014832905,19,7,-7,-8,4,17,-5,-3
7014832905,-11,-2,-2,2,-2,1,0,3
7014833613,-7,-3,-1,-1,-2,3,-1,-4
7014833613,-8,-12,-2,-2,-6,-18,-14,-2
7014847257,16,3,-4,-4,4,23,-4,4
7014847257,-2,5,-2,1,-1,-6,-5,-3
7014854762,-6,-7,0,-3,-3,-1,-1,-2
7014854762,1,3,2,0,0,0,-1,-1
7014869786,-27,-8,-1,6,3,0,-6,-4
7014869786,14,-8,-10,-12,-9,-7,-4,2
7014877863,5,10,4,1,2,-1,-1,3
7014877863,7,-1,7,1,-2,5,8,2
7014892939,-10,-11,-17,-14,-1,-9,-12,-6
7014892939,36,17,8,29,1,-2,1,-1
7014893590,-35,-13,-9,-24,-2,1,4,-2
7014893590,-15,-32,-26,-13,-10,-3,-7,-2
7014907283,-8,17,15,0,-21,-13,-14,-6
7014907283,3,-9,-21,-7,32,13,5,0
7014914781,20,15,14,15,1,5,2,0
7014914781,-8,-1,9,15,5,2,-4,3
7014929747,7,-2,-2,-16,-7,-5,17,9
7014929747,1,9,-11,-9,-12,-8,-27,-8
7014937969,9,-27,2,6,3,-1,-2,-3
7014937969,-9,0,-12,-5,6,1,2,-1
7014952928,18,18,9,7,-1,-4,-4,0
7014952928,-12,-5,11,7,-6,-3,4,3
7014953669,-5,11,3,7,8,5,-1,2
7014953669,-5,25,6,-3,-5,-9,10,-2
7014967276,-6,-18,6,21,9,13,0,7
7014967276,-3,2,-4,-23,-9,-7,9,-3
7014974781,-1,12,-7,-14,-11,-1,-34,-9
7014974781,2,10,12,30,2,9,12,-3
7014989732,14,14,-13,-10,5,-1,-9,1
7014989732,-1,12,5,-2,-3,-5,18,-2
7014997879,7,-19,-7,-8,-8,-6,1,11
7014997879,0,3,-3,2,-4,-3,-8,-1
7015012884,-12,-19,-14,-27,0,3,-7,-8
7015012884,-4,-4,2,6,-16,-7,-1,-2
7015013598,10,-13,-2,6,12,9,14,0
7015013598,5,-1,5,-2,-2,0,-5,3
7015027216,-22,-16,6,21,11,-4,-8,-5
7015027216,2,-3,-8,-14,0,0,-8,0
7015034754,-7,-5,1,4,-1,-7,-5,-9
7015034754,5,-11,-10,-15,-4,-3,-2,6
7015049762,4,-2,-23,-8,0,0,4,-3
7015049762,-2,12,1,11,-5,2,-4,0
7015057949,3,11,6,-1,3,3,10,4
7015057949,-4,0,0,-11,5,6,12,-3
7015072893,8,8,8,-12,3,-5,-18,0
7015072893,-5,-20,-4,28,14,9,-2,2
7015073601,12,35,1,-1,-13,-7,8,2
7015073601,-6,5,1,22,5,-4,-5,-3
7015087297,0,4,5,-2,-8,-7,-7,-3
7015087297,-4,10,7,-10,-8,2,1,-3
7015094633,3,-5,-1,2,-4,3,1,0
7015094633,-1,-5,-11,-17,-7,-5,-4,-5
7015109759,16,14,3,22,7,1,6,7
7015109759,-26,-8,3,-5,2,-4,-1,-8
7015117960,2,-9,-22,-11,0,-3,3,0
7015117960,-2,3,14,-5,-4,-6,-7,-4
7015132819,16,8,-8,3,-3,-6,3,3
7015132819,1,-23,-13,-7,1,10,37,6
7015133721,-36,-19,-1,-4,-5,-10,-6,-9
7015133721,2,1,13,9,4,-8,7,3
7015147247,-10,-22,1,-8,-7,-4,8,-5
7015147247,11,3,3,-5,-2,-5,-17,-3
7015154697,5,14,9,2,-2,-2,-7,-7
7015154697,-8,-5,-11,-6,-1,11,21,-1
7015169768,-4,-1,-3,-3,1,12,-13,8
7015169768,3,1,-2,-3,-5,-1,-6,-1
7015178004,1,0,1,2,-2,-13,12,-2
7015178004,4,10,4,-1,-3,7,-21,1
7015192908,-10,0,1,-4,-1,1,8,-6
7015192908,-11,-3,-1,-2,-3,-9,-10,1
7015193624,9,1,-6,2,0,1,-7,0
7015193624,-4,-11,-3,-8,-6,-7,1,-10
7015207267,0,-29,-8,0,2,-9,14,5
7015207267,6,-9,2,-1,-1,-9,1,-1
7015214752,-6,-2,-1,-2,4,24,12,0
7015214752,-5,-9,0,2,2,-4,-2,2
7015229781,11,-4,4,-1,-1,6,-9,-1
7015229781,5,8,3,0,0,-20,-6,0
7015237953,-28,-10,-1,0,2,8,-7,-3
7015237953,-7,-11,-2,1,2,-1,0,1
7015252934,-11,-3,1,-2,-2,-5,-8,-8
7015252934,18,7,-2,0,-3,4,-11,2
7015253617,-7,-1,-1,1,-2,-3,-9,0
7015253617,15,2,-7,-4,-5,-1,-7,2
7015267231,14,21,1,3,3,-6,7,9
7015267231,-30,7,9,6,-1,6,5,-5
7015274701,21,-13,2,-3,-4,-1,-8,0
7015274701,-36,-46,-13,-14,-4,-5,-2,-6
7015289682,1,44,6,8,0,-1,0,-5
7015289682,-6,12,10,40,-9,-5,-9,0
7015297963,5,-87,-26,-51,6,-8,9,1
7015297963,31,98,19,1,1,4,-13,11
7015312915,-28,-69,-35,12,18,15,1,-9
7015312915,-2,70,38,65,-8,5,3,-6
7015313527,1,30,-33,-60,6,-4,-4,3
7015313527,24,65,34,69,1,-2,7,5
7015327240,-47,-97,-51,-75,-17,-14,-15,-14
7015327240,34,51,-6,13,1,6,-7,3
7015334734,-23,18,38,22,12,-4,-3,7
7015334734,6,-1,-22,-33,-6,2,2,-6
7015349764,12,14,16,15,-5,1,-3,-4
7015349764,1,-51,2,-19,9,-7,19,7
7015357977,12,18,5,13,-12,11,11,3
7015357977,2,-19,3,3,3,-16,14,5
7015372251,3,22,9,-7,2,7,-17,0
7015372251,-1,-10,-10,-29,-7,-9,3,-4
7015380435,5,30,-1,27,-4,3,-8,-2
7015380435,-18,-10,-11,-37,-10,-17,-10,-7
7015395391,19,45,8,5,-3,-2,1,2
7015395391,-5,0,-11,-23,3,2,-33,-1
7015396064,15,12,5,37,2,0,9,4
7015396064,-22,-30,4,-20,-4,4,-9,-7
7015409748,2,13,17,24,5,-2,-4,3
7015409748,-3,-32,-14,-9,6,8,4,-1
7015417955,-7,-30,6,18,3,-5,-9,-10
7015417955,17,-18,-15,-20,-2,8,5,5
7015432211,-7,-7,5,-5,0,-3,-2,-4
7015432211,-12,-23,-5,-9,1,1,17,-1
7015440431,8,8,-5,10,-9,-3,2,-5
7015440431,-1,1,-8,4,-2,1,-5,-3
7015447183,-3,-7,0,-9,-13,-7,2,2
7015447183,-12,-14,-7,-8,-6,-14,2,-7
7015454731,15,10,1,-1,-6,3,-3,2
7015454731,-24,-2,-1,14,8,-3,-13,-10
7015469732,1,-9,-16,-14,-5,11,15,0
7015469732,-7,-10,-3,-8,1,3,-12,-1
7015477855,8,20,3,-9,-2,-4,1,1
7015477855,12,-1,-8,-1,-3,-4,4,5
7015492290,16,16,15,30,7,-3,3,-3
7015492290,-29,-7,-10,-25,-2,-1,-7,-4
7015500380,-9,-11,-7,-6,0,-1,0,0
7015500380,1,-8,1,6,1,4,-9,-1
7015515381,-6,3,5,2,-1,-3,8,2
7015515381,17,10,-3,-7,-1,7,-2,0
7015516085,-3,6,3,-5,-6,-9,0,-11
7015516085,-8,-1,-2,2,1,2,-4,3
7015529714,-11,-6,5,-11,1,1,9,2
7015529714,2,3,-12,-10,1,1,4,2
7015537880,-8,1,-14,-16,-8,-4,-3,-1
7015537880,12,6,5,10,1,5,5,0
7015552218,5,8,0,-12,-12,-11,-11,-2
7015552218,-2,-10,20,39,17,11,4,-1
7015560473,4,-2,2,4,5,-10,6,1
7015560473,-2,-6,-6,1,11,20,7,1
7015575381,0,10,-5,-6,-6,2,-4,-1
7015575381,2,-13,-8,-13,-12,-7,-2,-4
7015576069,-16,-3,-1,-7,-14,-8,-10,-1
7015576069,-9,-9,-3,1,1,-7,-4,-4
7015589714,-7,4,-2,5,8,6,3,2
7015589714,9,7,4,8,3,0,11,3
7015598667,3,0,5,11,0,1,2,1
7015598667,2,-9,-13,-14,-9,-13,-6,2
7015612211,4,1,-5,-3,-1,-1,-5,-4
7015612211,-4,2,-3,-8,-1,-2,-22,1
7015621121,-2,-6,3,1,-3,-4,-4,-4
7015621121,10,12,8,4,-1,5,-10,4
7015634705,-12,-7,-2,0,-1,-18,-2,-2
7015634705,2,0,1,-1,-1,22,17,-2
7015643601,-6,-1,-2,1,1,1,-8,-4
7015643601,8,-4,1,0,-1,-8,-4,0
7015649707,10,5,-1,6,-1,13,-5,1
7015649707,-13,-6,-4,-5,-6,-22,0,-6
7015658671,-10,7,-1,-3,3,20,-8,-2
7015658671,4,-7,-1,0,-4,6,3,-3
7015672156,-10,2,2,3,-1,-11,5,1
7015672156,11,1,0,-4,-3,-8,-1,0
7015681098,2,5,1,5,0,-2,11,1
7015681098,-3,-5,-4,-6,-2,-5,-5,-2
7015694710,20,5,-1,-5,-3,2,-8,-2
7015694710,-9,4,2,-1,3,5,-5,1
7015703622,2,-14,-6,-6,-6,-12,-9,3
7015703622,-4,5,1,-7,-7,-2,3,-5
7015709692,12,9,10,21,4,-1,-5,2
7015709692,-24,-31,-19,-20,9,6,5,-7
7015718619,-10,5,-7,-9,3,0,1,1
7015718619,12,-15,-7,-7,-7,-4,1,-2
7015732253,-15,9,2,-12,-14,-1,0,-4
7015732253,24,12,7,21,5,-2,-5,3
7015741174,-10,-10,1,1,-3,0,0,-3
7015741174,0,-3,-2,-1,0,0,5,-1
7015754622,5,2,2,3,-2,0,-2,-1
7015754622,-14,3,4,2,-8,-4,-3,-3
7015763612,19,1,-10,-11,-3,-5,-4,5
7015763612,4,8,7,3,-7,0,4,0
7015769734,-19,-15,1,-6,6,-1,-1,-2
7015769734,10,3,-8,-8,-1,2,3,1
7015778614,8,12,9,14,5,0,3,-1
7015778614,-27,-3,-3,-10,1,-1,-4,-4
7015792231,6,-7,1,8,-2,3,2,-1
7015792231,-8,0,-4,-11,-13,-6,-2,5
7015801115,1,-7,-2,-2,-2,-5,-2,-4
7015801115,-4,3,1,13,5,1,2,2
7015814722,7,-2,5,7,4,1,-2,-3
7015814722,-1,8,-7,-8,-1,1,-2,-2
7015823592,-6,-5,3,1,-3,-1,0,1
7015823592,1,-4,5,0,-3,-4,-4,-3
7015829770,-8,-7,-17,-21,2,0,0,1
7015829770,8,8,9,11,4,1,7,0
7015838615,-11,-11,-8,-9,-7,-7,-3,-5
7015838615,1,3,2,26,4,6,1,-2
7015852262,-11,-13,-1,-18,-5,-7,-3,2
7015852262,18,11,1,-15,2,2,-5,0
7015861058,-5,-7,-1,9,2,-2,-1,-3
7015861058,-7,-9,0,-7,-4,-3,0,-2
7015874734,-1,8,2,8,-7,-3,-1,-2
7015874734,-1,-5,0,5,-8,-8,-6,-2
7015883612,-4,-3,-6,-16,-3,2,0,-4
7015883612,4,8,-3,1,0,-1,-1,3
7015889644,-6,-9,-1,-5,2,0,-1,-3
7015889644,-3,-5,-9,-4,-3,-1,-1,-2
7015898566,17,5,2,9,3,1,-2,4
7015898566,-12,-9,-5,-9,0,1,1,1
7015912253,2,3,-4,1,-1,1,1,1
7015912253,-2,-2,3,7,-5,-6,-1,-2
