timestamp,emg1,emg2,emg3,emg4,emg5,emg6,emg7,emg8
67715688491,0,1,-1,1,-3,-3,-2,-2
67715688491,0,-2,-2,-1,-3,-1,0,-1
67715689467,-1,-2,-1,-1,0,-2,0,0
67715689467,-2,-1,-2,0,4,3,1,1
67715690098,-1,-2,0,-1,0,2,0,0
67715690098,-2,-3,-1,-3,-4,-2,-2,-1
67715693754,-1,-1,-3,-1,-1,-1,1,-2
67715693754,-1,-1,-2,-1,-4,-2,-3,-2
67715700152,0,0,-1,0,-1,0,0,0
67715700152,-1,3,-2,0,1,4,0,0
67715708845,0,-3,-1,-1,-2,-1,-2,-1
67715708845,-2,0,-2,-2,-3,-3,-2,-2
67715716572,-2,-2,-3,-1,-3,-4,-2,-3
67715716572,0,-1,-1,-2,-2,-2,0,-2
67715730853,-2,-1,-1,0,0,1,-2,-3
67715730853,-2,-3,1,-2,-2,-1,-1,0
67715738889,-2,-2,0,0,-1,-1,0,1
67715738889,6,3,-1,1,4,1,2,0
67715745062,0,0,-1,-2,-3,-7,-3,-3
67715745062,0,-3,-2,0,1,1,1,-1
67715760346,-3,-2,-1,-1,-1,0,0,-1
67715760346,-1,-3,-2,-1,-2,-2,-3,-2
67715768749,0,0,-1,0,-1,0,0,-1
67715768749,-1,0,0,-1,-1,-3,-2,-1
67715808265,-2,-3,-4,-2,-1,-3,-3,-3
67715808265,0,-2,-2,-2,-2,-2,-1,-1
67715809215,-1,-1,0,0,1,0,0,0
67715809215,0,-1,-1,-2,0,0,0,-2
67715809970,0,0,1,0,0,-1,0,0
67715809970,0,-2,-1,-1,1,1,-1,-1
67715813231,0,0,-1,-2,-2,-4,-4,-2
67715813231,-1,-3,-2,0,-2,0,0,0
67715819989,-2,0,0,-1,0,1,-2,-2
67715819989,-1,0,0,1,1,1,0,-2
67715827467,-1,1,0,-2,-1,0,-1,-1
67715827467,-3,-2,-1,-2,-1,-2,0,-1
67715836272,-1,0,-1,-2,-1,0,0,-1
67715836272,-1,1,0,-2,-3,-1,0,-1
67715850770,-1,-3,0,-2,-1,0,-2,-2
67715850770,0,-1,-1,1,1,-2,-1,0
67715857485,1,-1,1,-1,1,0,-1,-1
67715857485,-2,-2,-1,0,-1,-1,1,-1
67715864888,-2,-3,-1,0,-2,1,-1,-2
67715864888,-1,0,-1,-1,-2,-2,-2,1
67715880033,-2,-1,-1,0,-4,-2,0,-1
67715880033,0,-1,-1,-2,-1,-2,-2,-1
67715887577,-1,-1,-1,-3,-5,-2,0,-3
67715887577,0,-2,0,1,-1,0,0,-2
67715896304,0,-2,1,0,-1,1,-2,-1
67715896304,-1,0,-2,-1,-1,-1,-2,-2
67715910675,-1,0,-2,0,0,-2,-1,0
67715910675,-1,0,-3,-2,0,2,-1,-1
67715917550,-1,-1,-2,-1,0,-1,1,-1
67715917550,-2,-2,-2,-1,-1,-2,-1,0
67715924986,-2,-2,-2,0,-1,-2,-2,-2
67715924986,-1,-2,-1,-1,-1,-4,-4,0
67715939943,-1,-2,-2,-3,-2,0,-1,0
67715939943,0,0,0,-1,0,0,-1,-2
67715947350,-1,1,-1,-1,-1,-1,1,-1
67715947350,0,-3,-1,-1,-2,-3,-2,-2
67715956361,-2,-1,-2,0,-2,-2,-2,-3
67715956361,-1,-2,-1,0,0,0,-1,-1
67715970671,-1,-1,1,0,0,0,0,0
67715970671,-2,-2,-1,-3,-1,-2,-1,-2
67715977496,-1,0,0,0,-2,-1,-1,-2
67715977496,0,-1,-1,-3,-2,-4,-3,0
67715984944,-2,-2,-3,-1,-1,0,1,-1
67715984944,1,1,-1,-1,1,3,0,-1
67715999957,1,0,-1,-4,-4,-3,0,-1
67715999957,-2,0,0,-1,0,1,0,1
67716008041,-1,-1,-1,-2,-5,-5,-3,0
67716008041,-1,-2,-2,2,2,3,0,-3
67716022434,0,-1,0,2,3,0,-1,0
67716022434,0,0,-1,-1,-2,1,0,-1
67716030680,-1,-1,-2,-2,-3,-5,-4,0
67716030680,-2,-2,0,-2,-4,-5,-2,-2
67716037486,0,1,1,0,-1,-2,-4,-1
67716037486,-3,-1,0,0,0,2,1,-4
67716045053,0,-5,-1,1,5,3,1,1
67716045053,-1,0,0,-2,-4,-2,-2,0
67716060046,0,-3,1,0,0,-1,0,0
67716060046,4,4,-1,-2,-3,-4,-5,-2
67716068223,1,0,0,-2,-2,-1,-1,-2
67716068223,0,-3,0,1,0,-2,-1,-1
67716075028,-2,-1,-2,0,-2,0,-2,0
67716075028,-1,-2,1,0,1,-2,-1,-1
67716090547,0,0,-3,-2,-2,-1,-1,-2
67716090547,-1,0,0,-1,-1,-4,-2,-1
67716097472,-2,-2,-1,-3,-3,-3,-3,-3
67716097472,-2,-5,2,2,0,-1,-5,-1
67716104840,0,1,-1,6,7,8,4,1
67716104840,-2,0,-1,-11,-3,-2,-2,0
67716119981,0,0,-3,0,-5,-3,-1,-1
67716119981,-1,-2,1,0,-4,-1,1,1
67716128109,-2,3,1,1,0,-1,-4,-2
67716128109,0,-3,-1,3,0,2,1,-1
67716134992,-2,-6,-1,-2,3,4,0,1
67716134992,-1,-1,-1,-3,-5,-5,-2,-1
67716150515,0,-1,2,-4,-4,-4,-2,-1
67716150515,-2,0,-3,0,0,1,0,-2
67716157504,-1,-1,1,-1,1,-1,-2,-1
67716157504,-2,-4,-3,-1,-1,1,0,-1
67716164901,-3,-1,1,-1,-2,-1,0,-2
67716164901,1,6,0,0,-4,-2,1,-2
67716180052,-1,-2,-1,1,-2,-2,0,-3
67716180052,-1,-1,-2,0,3,2,2,-1
67716188226,0,2,-1,-4,-3,-2,-3,0
67716188226,-3,-6,0,2,1,-3,-2,-1
67716195005,0,-1,-1,-1,0,3,0,1
67716195005,-2,4,2,-2,-5,-3,-3,-1
67716210748,-1,-6,-2,-2,-1,0,-2,-2
67716210748,1,4,1,1,-2,-3,-7,-1
67716217496,-2,-3,-4,-6,-1,2,6,1
67716217496,0,-3,0,0,1,-3,-2,-1
67716233048,-2,0,-2,0,-1,0,2,-2
67716233048,0,-1,-1,0,-2,-3,-3,-2
67716240075,-1,1,2,-5,-3,-1,-3,0
67716240075,0,-5,-2,-1,-1,-1,-1,-1
67716248559,-2,0,0,-1,1,-3,-1,0
67716248559,-1,1,-3,3,-1,0,-2,0
67716256351,-1,1,-1,1,1,0,-1,-1
67716256351,-1,-2,-2,-1,-1,2,0,-1
67716270582,0,-5,0,0,-2,-3,-3,-4
67716270582,-1,-2,0,-4,-2,0,2,-1
67716277589,0,-3,-1,1,-2,-3,-3,-1
67716277589,-2,1,-2,-2,1,-1,-1,0
67716293028,-3,-3,-1,0,-2,0,2,1
67716293028,-1,1,0,-1,-1,1,1,0
67716300081,-2,-1,-2,-1,-1,-2,-3,-3
67716300081,-2,0,-1,1,-1,-1,1,-1
67716308132,-2,-2,-2,-3,-1,-2,-4,-1
67716308132,-3,-1,-1,0,3,0,2,0
67716314859,-2,0,-1,1,-4,-6,-5,-1
67716314859,0,0,-1,-1,3,3,1,1
67716330758,1,-1,-2,0,1,1,0,-1
67716330758,-2,-6,-2,-4,-5,-3,-2,-2
67716337597,-2,-3,-1,1,1,1,1,-3
67716337597,-3,-2,0,-4,-4,-4,-2,-3
67716353099,1,2,0,0,0,0,-1,-2
67716353099,0,-1,0,-1,3,1,0,1
67716359867,-1,-3,-4,-3,-1,0,-2,-1
67716359867,0,0,0,1,-2,-1,0,-1
67716368237,-2,0,-1,-1,-3,-3,-3,0
67716368237,-2,-2,-2,-2,-3,-1,-2,-1
67716374936,-1,1,1,2,1,0,-2,1
67716374936,-2,-4,-2,1,2,1,1,-1
67716390658,-1,0,-3,-4,-3,-1,-1,-3
67716390658,-2,0,1,0,1,1,-1,-2
67716397452,3,2,-1,-2,-3,-4,-1,0
67716397452,0,-1,-3,-3,-3,-4,-4,-1
67716413301,-1,0,2,1,1,-2,-1,0
67716413301,0,-2,-1,5,4,4,1,0
67716419993,-2,2,-2,-5,-2,0,-2,-2
67716419993,1,-4,-1,-3,-5,-4,-1,-1
67716428275,-1,0,0,1,-2,-3,-3,-1
67716428275,-1,0,-4,-3,-1,-2,-4,-1
67716435039,-1,-3,1,1,1,0,-8,-2
67716435039,1,-2,-1,-1,2,3,7,2
67716450602,0,-1,-1,-3,-4,-3,-3,-3
67716450602,0,0,2,0,-2,-1,1,-1
67716457479,-1,-3,0,0,-3,-2,-2,-3
67716457479,0,2,0,1,1,1,-2,-2
67716473126,-1,3,-2,-2,0,2,-2,0
67716473126,-2,-6,-2,-2,-1,-1,0,-1
67716480038,1,1,0,0,-1,-2,2,1
67716480038,0,0,1,0,-4,-3,-3,-1
67716488261,-2,-1,-2,0,0,-1,2,-2
67716488261,-2,-1,-3,-2,-4,-2,-1,-2
67716502322,-2,-3,-2,-2,-2,-1,2,0
67716502322,-2,0,-1,-1,-2,-3,-1,-1
67716510730,-2,0,-1,-1,0,0,0,1
67716510730,0,-1,1,-2,-1,-1,-2,-1
67716517490,0,0,-1,-1,0,-2,2,-3
67716517490,-3,0,-1,-1,-2,0,-4,-1
67716532981,-2,-6,-1,-4,-5,-3,0,-2
67716532981,-1,2,-2,0,-3,-3,-1,0
67716539776,-1,0,-3,0,1,-1,0,-1
67716539776,2,2,-1,2,2,1,-1,0
67716555773,0,-4,0,1,0,0,-1,-1
67716555773,0,2,-2,-1,-2,-2,-1,-1
67716562281,-2,-1,-2,-2,-2,-3,-2,-3
67716562281,-3,0,-3,-2,-3,-3,-2,-2
67716570731,-1,-3,-1,1,0,-2,-3,-3
67716570731,0,-1,0,-1,-1,-1,0,-1
67716577536,1,4,-1,1,1,3,0,-1
67716577536,-1,-4,-3,-1,2,-1,-1,-2
67716593073,-1,-1,0,-2,0,-2,0,0
67716593073,-1,-3,0,0,0,1,1,-2
67716600055,-2,1,-1,-1,-2,-1,-1,-2
67716600055,-1,-1,0,-1,-3,-2,-2,-1
67716608127,-3,-2,-1,0,0,-1,-1,-1
67716608127,1,0,1,1,-1,-2,-1,0
67716622454,0,1,-2,-6,-3,-1,0,-1
67716622454,-2,-2,-3,1,0,-1,-2,0
67716630691,2,3,-6,-6,0,0,1,0
67716630691,-1,0,12,5,-4,-3,-2,-1
67716637479,-4,-1,2,1,0,1,0,2
67716637479,5,-2,-1,-6,1,0,0,-3
67716653232,-5,-2,6,1,-7,-2,-2,-3
67716653232,0,1,0,0,0,-1,-2,0
67716659906,-1,-5,-3,-2,-2,-3,-2,-1
67716659906,1,2,-4,-3,-3,-4,-1,3
67716668204,5,3,6,9,2,1,-1,1
67716668204,-7,-7,-30,-15,-4,0,-2,-4
67716682586,8,0,-14,-25,-1,-1,-2,0
67716682586,-1,0,16,19,2,0,-2,-1
67716690815,-5,-8,-21,-22,-4,-2,-3,0
67716690815,-2,1,11,7,0,-2,0,-1
67716697501,-3,-4,4,3,-2,-3,-2,-3
67716697501,8,3,-1,-4,0,-1,-2,-1
67716713837,-16,1,2,-7,-4,-2,1,-1
67716713837,2,1,0,-3,-1,0,-2,0
67716720083,3,-4,-2,3,1,0,-1,3
67716720083,-5,-2,6,6,-4,-3,-2,-11
67716728838,1,-1,-2,-5,1,0,1,2
67716728838,4,-3,-3,0,1,1,-3,5
67716742415,-10,0,-4,6,0,-2,-4,-22
67716742415,-10,-9,-3,-13,-9,-1,-3,2
67716751298,2,-1,-3,6,0,-2,-3,-4
67716751298,-5,1,-1,-11,0,-1,0,0
67716757377,3,3,-4,6,3,2,2,4
67716757377,-1,-3,-4,-7,-6,-4,-2,0
67716773797,-1,-1,6,5,1,1,0,-4
67716773797,6,0,-3,-7,-1,-3,-3,-1
67716780105,-6,-5,-1,6,-4,-1,1,1
67716780105,-2,1,-13,-8,3,2,0,3
67716794883,5,2,3,-1,0,-1,0,-3
67716794883,1,2,7,7,0,-3,0,-3
67716802296,0,1,5,5,-2,-1,-1,6
67716802296,-5,-3,-10,-10,-2,-1,-4,-7
67716817951,0,-1,-3,2,-3,-2,-2,-2
67716817951,5,-1,7,4,1,3,1,2
67716818924,-4,-2,4,-6,2,0,3,-1
67716818924,1,7,11,5,0,-2,-2,1
67716833818,-2,-4,-18,-1,-2,-2,-1,1
67716833818,-8,-2,-4,-3,-2,-2,-3,-6
67716840022,0,1,5,-3,-3,-3,-2,4
67716840022,2,2,-7,5,0,0,2,1
67716855048,3,2,9,-1,-1,1,-1,-2
67716855048,-4,-4,-7,-4,-2,-3,-1,0
67716862490,0,-2,-5,-1,-1,-1,-2,-1
67716862490,-2,-3,-3,0,3,4,4,0
67716879468,0,-2,3,2,-1,-3,-2,-1
67716879468,-2,-2,-4,-1,1,-1,-2,-1
67716880490,-2,-1,3,-1,-3,-4,-2,-1
67716880490,-1,-1,8,-1,-3,-4,-1,-2
67716893805,-3,-2,-4,0,-1,0,-2,1
67716893805,1,1,2,1,-2,0,0,-2
67716900179,0,-1,-5,-3,-2,-2,-2,0
67716900179,-1,1,4,3,0,-1,0,-4
67716915055,-3,-1,2,3,5,6,5,-1
67716915055,5,-1,-4,-3,-1,-1,-2,1
67716922561,-5,-1,-1,-2,0,0,0,1
67716922561,0,-2,-3,-2,-3,-3,-2,11
67716937983,-7,1,0,0,-3,-1,-1,-18
67716937983,10,0,0,2,0,1,-2,-1
67716938915,-1,-2,2,2,0,0,-2,-3
67716938915,2,-1,-3,0,0,-1,-3,3
67716953856,0,-3,-1,-2,-1,-2,-3,4
67716953856,-15,1,3,1,-1,1,1,-2
67716959968,1,-4,-14,-6,-1,-1,-4,0
67716959968,-4,-1,1,0,-1,-1,0,-8
67716974887,3,-1,2,-2,-3,-2,-1,5
67716974887,-4,-1,-3,1,0,-2,-1,-2
67716982550,0,-2,3,-1,1,2,0,1
67716982550,-2,-2,-4,0,2,1,0,-2
67716998218,6,1,-1,-2,1,1,-2,0
67716998218,-6,-2,0,-1,-4,-2,-4,0
67716998792,-3,0,-2,-1,-1,-1,3,-1
67716998792,0,0,-4,-1,0,-1,0,-2
67717013787,2,0,2,1,0,-1,1,4
67717013787,-1,-2,-4,-3,-3,-2,-2,-3
67717019980,-1,1,0,-1,-1,0,-1,-2
67717019980,-3,-3,-2,-2,-2,-2,0,-4
67717034987,3,0,2,2,-1,0,1,2
67717034987,0,-2,-6,-3,-2,-3,-1,-2
67717042300,-2,-2,0,-1,-2,0,0,-1
67717042300,1,-1,-2,0,1,0,-1,0
67717058198,-2,-1,-2,0,-2,-1,-1,0
67717058198,-4,-3,-3,-3,-1,-2,-3,-1
67717058812,2,-1,1,1,-1,-3,-2,-3
67717058812,-2,-3,-4,-4,-5,0,-1,-1
67717073944,-2,-2,-3,-2,-1,-2,-2,1
67717073944,0,1,-1,1,2,1,2,0
67717079971,-2,-4,-2,-1,-3,-1,-1,-1
67717079971,-2,-1,-1,-5,-2,-1,-1,0
67717095057,0,-1,-2,1,-2,-2,-2,-1
67717095057,-2,-2,0,1,-1,0,0,-2
67717102385,-1,1,-1,-1,0,-1,1,-1
67717102385,0,-2,-3,-3,-2,0,-4,-1
67717118200,-2,-1,0,-2,-2,-2,-1,0
67717118200,1,-1,1,0,1,0,-2,6
67717118762,-2,1,2,1,0,-1,0,-6
67717118762,0,0,0,0,-2,-2,-3,-1
67717133878,1,-1,-3,-2,0,-3,-2,-2
67717133878,-2,-2,-3,0,1,1,0,0
67717140066,-1,1,0,1,0,1,-3,-3
67717140066,1,2,-2,-2,-2,-2,0,-1
67717156367,-2,-5,-2,-2,-5,-2,-1,-1
67717156367,-1,3,1,0,4,-2,-8,-3
67717162550,1,1,0,-3,-3,-3,9,1
67717162550,-2,0,1,2,0,-3,-4,2
67717178135,-1,0,-2,0,2,3,1,1
67717178135,-3,-4,-5,-8,-7,-5,-5,-16
67717178848,1,-2,-1,0,2,3,3,14
67717178848,3,0,2,3,2,0,1,-1
67717193797,-10,-1,-1,0,0,-4,2,-2
67717193797,1,-2,1,2,1,2,1,0
67717199848,1,-1,-2,-2,-1,-4,-5,-4
67717199848,-3,-2,-2,-3,-2,-1,-2,-3
67717215068,1,1,0,-3,-2,-1,-3,-1
67717215068,-1,-4,-1,-1,0,0,3,3
67717222428,0,1,-2,-1,-2,-2,-5,-1
67717222428,-1,-1,0,-1,-1,-1,-1,-1
67717238102,0,1,0,-3,-2,-4,-2,-5
67717238102,1,1,2,-1,-3,-1,3,2
67717238773,-1,-1,-2,1,1,-2,-2,-3
67717238773,-1,-2,-1,0,0,-1,-2,-2
67717253906,0,-1,-1,1,-1,0,0,-1
67717253906,0,0,0,-2,0,0,1,0
67717259967,0,-3,-1,-2,-2,-2,-5,-3
67717259967,-1,1,-2,0,0,-1,2,-1
67717274817,0,-2,-4,0,0,-1,0,0
67717274817,-2,-1,-2,1,-1,-2,-1,0
67717282454,-2,-1,-2,0,-2,0,-3,-4
67717282454,-1,-3,0,-1,-2,-3,-2,-1
67717298248,1,0,0,-2,-1,-1,0,2
67717298248,0,-1,-2,0,-1,-1,-1,0
67717298766,-2,-1,0,0,-1,0,-2,-2
67717298766,-3,-1,-2,0,0,1,0,-1
67717313807,-1,-2,-1,-1,-2,-4,-3,-2
67717313807,-2,0,-1,-3,-3,-2,1,-2
67717320048,0,1,-1,-3,-2,-1,-1,-1
67717320048,-1,1,-3,-1,0,-2,0,-2
67717335094,1,0,0,-1,-1,-1,-3,-2
67717335094,-2,1,-2,1,-1,0,-1,-1
67717342365,-1,-2,-2,-1,-1,0,0,1
67717342365,-2,-1,0,-2,-1,-4,-1,-2
67717358238,1,-1,-3,-1,1,-1,-2,-2
67717358238,0,1,1,-2,-1,-1,0,0
67717358790,-1,-1,0,-2,0,2,-2,-1
67717358790,-2,0,0,1,-1,-1,-2,-1
67717373912,-2,-2,0,-2,1,1,-2,-1
67717373912,1,-1,0,-1,-3,-2,-1,-2
67717380015,0,1,-2,-1,-3,-3,-2,-2
67717380015,-1,-2,-3,-2,1,2,0,-1
67717394831,-1,0,-1,-1,-3,-2,1,-1
67717394831,-1,-2,0,0,1,-1,-2,-1
67717402365,0,-1,-1,-3,0,-1,0,-1
67717402365,-1,-1,-1,-2,-2,-1,0,-1
67717418172,-1,-1,-1,0,2,-2,-1,-1
67717418172,0,-1,-3,0,-1,-1,1,-1
67717418853,-1,-3,0,-2,-1,-3,-2,-1
67717418853,-2,-1,-1,0,-1,0,-2,0
67717433907,-2,-2,-2,-1,-3,-1,-3,0
67717433907,0,0,0,1,0,1,-2,0
67717439865,-1,-1,-1,1,-1,1,-1,-2
67717439865,0,-2,-1,0,1,0,-2,-1
67717455012,0,-1,-2,-1,-3,-1,0,-1
67717455012,0,-1,0,-1,-2,-2,0,-1
67717462541,-2,-2,-3,1,0,0,0,0
67717462541,0,0,0,-2,0,-2,-1,-2
67717477576,-2,-1,0,0,-1,-1,1,-2
67717477576,-2,-2,-2,-2,-2,0,-2,0
67717485064,-1,2,0,-2,-1,-3,1,0
67717485064,-1,-1,-3,1,-4,-1,-1,-2
67717493828,-1,-2,0,-1,0,-1,-2,-1
67717493828,0,0,-1,-1,-2,-2,-2,-1
67717499967,0,-1,-2,-1,-2,-2,-1,1
67717499967,-1,-2,-1,-2,-1,1,1,0
67717515067,0,-1,-1,-1,1,1,0,-1
67717515067,-2,-3,1,-1,0,0,-1,-1
67717522413,-1,-2,-2,-2,0,-3,-2,-2
67717522413,0,-2,1,-2,-2,-2,-1,-1
67717537311,0,-1,-2,0,0,2,0,-1
67717537311,-1,-2,-2,1,1,-2,-2,-1
67717544846,-2,0,-1,1,-1,0,-1,0
67717544846,-2,-3,-3,-2,-1,-3,-1,0
67717553834,-2,-1,-3,0,1,1,-1,-1
67717553834,-2,-1,-1,-1,-1,-1,0,-1
67717559931,0,-1,-1,-1,-1,-1,-1,-1
67717559931,-1,-1,0,-1,-3,0,-1,-1
67717574880,0,0,0,-3,-3,-2,0,-2
67717574880,-1,-1,-1,-1,-1,-2,0,-1
67717582509,-1,-1,0,0,1,0,0,0
67717582509,-1,1,-1,-1,1,-1,-1,-2
67717597585,-2,-2,-1,-1,-2,-1,0,0
67717597585,-3,-2,-1,1,-1,0,-1,0
67717605028,-1,-2,-1,-1,-2,-3,-2,-1
67717605028,-1,-1,-4,0,0,0,-1,-1
67717620667,-1,0,-1,-1,-3,-4,-2,-2
67717620667,1,-1,-1,0,1,1,-1,-1
67717621287,-2,1,0,-1,1,1,0,1
67717621287,-1,0,1,0,-2,-1,-4,-1
67717634994,-2,0,0,-2,-1,-1,-1,0
67717634994,-1,-3,-3,-2,-1,-2,-2,-3
67717642540,-2,-1,0,0,-2,-1,0,-1
67717642540,1,-1,-1,-1,-3,-2,0,-1
67717657489,-1,-2,0,0,0,0,-1,-1
67717657489,-1,0,0,-1,-1,1,-1,1
67717664884,-1,-3,-1,-2,0,-2,-1,-2
67717664884,-1,-1,-1,-1,0,-3,-2,-2
67717680779,-1,0,0,0,-1,-3,-2,-2
67717680779,0,-2,-2,-1,-3,-1,0,0
67717681226,0,-2,-3,-1,-3,-1,-1,-1
67717681226,-3,-1,-2,0,0,-2,-1,1
67717694991,-2,-2,-1,-1,1,1,0,-1
67717694991,0,0,1,-3,0,-1,-1,0
67717702354,-2,0,-1,-1,-2,-3,-2,-1
67717702354,-1,0,-1,-1,-1,-1,1,-1
67717717498,0,-1,-2,-1,0,-2,-2,1
67717717498,-1,0,-2,0,2,0,-1,-2
67717724997,-2,-2,-1,-1,-1,-2,-1,-1
67717724997,-1,-1,0,-1,0,2,2,0
67717740461,0,-1,-1,0,-1,-2,-3,0
67717740461,-2,-2,-1,0,-4,-2,-1,-2
67717741363,-1,0,-2,1,0,-1,-2,-1
67717741363,-1,-2,-1,-1,-2,0,-1,-2
67717754993,0,-1,0,-1,-2,-2,-1,-1
67717754993,-1,1,0,0,-3,-2,-1,0
67717762460,0,0,0,-1,1,1,-1,-2
67717762460,0,-1,-1,-1,-2,-1,-1,0
67717777497,-2,-1,-1,0,-2,-1,0,-1
67717777497,-1,0,0,-1,-2,-1,-2,0
67717784944,-2,-1,-1,0,-4,0,-2,-2
67717784944,-2,-1,-1,1,0,-1,-1,2
67717800693,-1,-1,-2,-1,-1,-1,0,1
67717800693,-2,-1,-3,-2,-1,-2,0,-1
67717801261,-1,0,-2,-1,0,-1,-2,-2
67717801261,-1,-1,1,-3,-3,-1,-1,-2
67717814919,-1,-2,0,-2,-1,-1,-3,-1
67717814919,-2,0,-1,0,-1,-1,0,0
67717822508,-1,-2,0,0,0,0,-2,1
67717822508,-1,-2,-1,-2,-2,-2,-1,-2
67717837515,-1,-1,-3,1,1,1,0,-1
67717837515,0,-1,-2,-4,0,-1,-3,-1
67717845047,0,-1,-1,-1,-1,-2,-1,1
67717845047,0,-3,0,0,-1,0,1,-1
67717860656,-1,0,-1,-1,-1,-3,-1,-2
67717860656,0,0,-3,0,0,1,-1,0
67717861291,-1,0,-1,0,-2,-2,-1,-1
67717861291,0,0,-2,-1,-1,-1,-4,-1
67717874999,-1,-1,0,0,1,0,-1,1
67717874999,0,-1,-1,0,-2,-1,-1,0
67717882559,-2,-3,-3,-3,-1,0,0,-1
67717882559,-1,1,0,-1,0,-2,-1,-1
67717897586,-2,1,-1,-1,-3,-3,-1,-1
67717897586,-1,-1,0,0,0,-1,0,-1
67717905013,0,-1,-2,-3,-1,0,0,0
67717905013,-1,-2,-1,-2,1,0,-2,-2
67717920532,-1,-1,0,-2,-2,-1,-1,-2
67717920532,-1,-2,0,0,-1,-1,-1,-1
67717921308,0,-1,-1,-2,-2,-1,-1,-1
67717921308,-1,-1,-1,-1,2,-2,-2,0
67717934856,-2,0,-1,0,1,1,-1,0
67717934856,-1,-1,-2,0,0,-2,-1,0
67717942334,0,0,0,0,-1,-1,-2,-1
67717942334,-1,-1,-1,1,-2,-2,1,0
67717957480,-1,0,0,-2,-3,-3,-1,-1
67717957480,-2,-3,-1,-2,-1,-2,0,-2
67717964885,0,-2,-1,0,-2,-1,-1,-1
67717964885,0,0,-2,-1,-2,-1,-2,-1
67717980593,0,-2,-1,-1,-1,-2,0,-1
67717980593,0,0,-2,-2,0,0,-1,-2
67717981269,-1,0,-1,-1,0,-1,0,-1
67717981269,0,-1,-1,-1,0,-1,0,0
67717994792,-1,-3,-1,-1,-3,2,-1,0
67717994792,-1,-2,0,0,-1,-1,0,-1
67718002268,-3,0,0,-1,-3,-2,-1,-2
67718002268,-4,0,0,-1,-1,-1,-1,-2
67718017522,0,1,-2,0,1,1,0,0
67718017522,0,0,1,0,0,-1,0,0
67718025694,-1,-1,-2,-1,0,0,-1,-2
67718025694,0,-1,0,-3,0,-2,-1,-1
67718040569,0,-1,-1,-2,-2,-2,-2,-2
67718040569,-1,-1,-1,-3,-3,-1,0,0
67718041398,-1,-1,0,1,-1,-2,0,0
67718041398,-1,-2,-1,-1,-1,0,0,0
67718055041,-2,0,-2,-2,-2,-3,-2,-1
67718055041,-1,-1,0,0,-1,-2,-1,0
67718062360,-1,-1,-1,0,0,1,-1,0
67718062360,-1,-1,0,1,-1,-2,-1,-2
67718077430,-1,-2,0,1,-1,-2,0,0
67718077430,0,-2,-2,-1,-3,-4,-1,-1
67718084875,0,-1,0,-1,-2,-3,0,-2
67718084875,-1,-2,-2,0,-3,-1,1,-3
67718100569,1,-2,-3,-1,0,-1,-2,1
67718100569,-1,-1,-1,-2,-2,-1,-2,-2
67718101248,1,-2,0,-2,1,-2,0,0
67718101248,-2,-1,0,-1,-1,-1,-1,-1
67718115027,-2,0,-2,-3,-1,-2,-1,-1
67718115027,-1,0,-2,-1,0,0,1,-1
67718122289,0,0,-2,0,2,1,-1,-2
67718122289,0,-1,-1,-2,-1,0,-1,-3
67718137353,-2,-1,-2,-2,0,0,-1,-2
67718137353,0,-1,-1,-1,-2,-2,-2,0
67718145628,-3,0,-1,-1,-3,-3,-1,0
67718145628,-1,-1,-2,-2,-2,1,-1,1
67718160677,0,0,0,0,-2,-1,-1,0
67718160677,-2,0,-2,-1,-2,-1,0,0
67718161296,-2,-1,-3,-1,-3,-2,-2,-2
67718161296,-1,0,-2,1,2,0,0,1
67718174969,-1,0,-1,-1,-1,-2,-2,-2
67718174969,-1,-1,0,0,-2,0,-2,0
67718182573,-1,-1,0,-1,-1,-1,-2,1
67718182573,-2,-2,-2,-2,-2,-5,-2,0
67718197592,-1,-2,-1,-2,1,2,0,-1
67718197592,-1,-1,-2,-2,1,-2,0,-2
67718205675,-2,-1,-3,-1,-2,0,-1,1
67718205675,-1,-1,-1,-2,-1,-1,-2,-2
67718220647,-1,0,0,-2,-2,-2,-1,0
67718220647,-1,-2,0,1,1,1,1,-1
67718221275,1,0,-2,-1,0,1,-1,0
67718221275,-2,-3,-1,-1,-2,-1,-1,-1
67718234803,0,-1,-3,-1,0,2,-1,0
67718234803,0,-1,-1,-2,-3,0,-1,-1
67718242330,1,-3,-1,-1,1,-2,-1,-1
67718242330,0,-2,-1,0,-2,-1,0,-1
67718257447,0,-1,0,-2,-2,-2,-1,-4
67718257447,-3,-1,-1,-1,0,0,-1,-2
67718265756,-2,0,-1,0,-1,-1,-1,-1
67718265756,-1,-1,0,0,-1,-1,0,0
67718280547,-1,-4,0,0,-1,-1,-1,-1
67718280547,-1,0,0,-1,1,1,-1,0
67718281402,-1,-3,-1,-3,-1,-1,-1,-2
67718281402,0,-1,-1,-2,-2,-1,-1,0
67718294989,-1,-1,-1,-1,-2,-1,0,0
67718294989,-1,-2,-1,-2,0,-3,-1,-1
67718302310,-2,-1,-1,1,0,1,1,-1
67718302310,-1,0,0,-1,-2,-1,-2,-1
67718317466,-1,-2,-1,-2,-3,-1,0,-1
67718317466,0,-1,-2,-2,-2,-3,-1,-1
67718325762,-1,-1,-1,0,-1,-1,-2,0
67718325762,0,-1,-1,-3,1,0,0,-1
67718340662,-1,-1,0,-1,0,0,-2,-1
67718340662,1,-2,-1,-1,0,-1,-1,-2
67718341337,1,0,-2,-1,0,0,-2,0
67718341337,-1,-2,-1,0,-2,0,-1,-1
67718354832,0,2,0,-1,-1,0,0,-1
67718354832,-1,-2,-2,0,-1,0,-1,1
67718362285,-2,-3,1,-2,-2,-2,0,-1
67718362285,-1,0,-1,0,-4,-2,-4,-1
67718377446,0,-2,-1,-1,2,2,1,1
67718377446,-3,-2,0,-1,-1,-1,-2,-2
67718385577,0,-1,-1,-2,-1,-2,-1,-2
67718385577,-3,0,-1,0,2,1,1,0
67718400010,-1,-2,-2,-1,-1,-3,-2,-2
67718400010,-1,0,-1,0,1,1,1,0
67718408170,0,-1,-1,-1,-2,-2,-1,0
67718408170,-1,-2,-1,-1,-1,-2,-1,-2
67718415008,-1,-1,0,-2,-1,-1,0,-1
67718415008,0,-3,-1,0,-1,1,0,-1
67718422503,-1,-1,-1,-1,-1,-1,1,-1
67718422503,-1,-2,-1,0,-1,-1,-1,0
67718437388,0,-1,-1,-1,-2,-3,-2,-1
67718437388,0,0,-1,-2,-1,-2,-2,-1
67718445434,-1,0,-1,-1,-1,0,1,-1
67718445434,1,-1,-1,-2,0,1,0,-2
67718459854,-1,1,-1,0,1,-1,0,-1
67718459854,-1,1,-2,0,-2,-3,-1,0
67718468190,-1,-1,-1,-1,0,-1,-2,-1
67718468190,-1,-1,-2,-1,-1,-1,0,0
67718474881,-1,-1,-1,-1,1,-1,1,-1
67718474881,0,-1,-1,-2,-1,1,1,-2
67718482512,0,0,0,-1,-2,-2,-2,-2
67718482512,-1,-1,-1,-1,1,2,0,1
67718498833,-1,-2,1,-1,-1,1,0,1
67718498833,-1,-2,-1,-2,-1,-2,-1,-3
67718505641,0,-2,-1,-1,-1,-1,-1,-2
67718505641,0,-1,-2,-2,-3,-3,-1,-2
67718519968,-1,-1,-3,-2,0,-1,-3,-1
67718519968,1,-1,-1,-1,-2,0,0,0
67718528245,-4,-1,-1,-2,0,-1,-1,-1
67718528245,-1,-2,0,-1,-1,-1,-1,-1
67718535057,0,-1,-3,-1,-2,-3,0,-1
67718535057,-2,-1,-1,0,-3,-1,-3,1
67718542484,-1,-1,-1,-1,0,0,-2,0
67718542484,-1,0,-1,0,-1,-1,-2,0
67718566432,-1,-1,-1,-1,-3,-1,-1,-1
67718566432,0,1,-1,-1,1,-1,-1,-2
67718567069,-1,-2,-1,0,0,2,-1,0
67718567069,-1,-2,-1,-2,-1,-2,-2,-1
67718580066,-3,-1,0,-1,0,-1,-2,-1
67718580066,0,-1,-1,-1,-1,-3,0,0
67718588217,-1,-3,-2,-1,-1,1,0,-1
67718588217,-1,0,-1,-1,-1,0,0,0
67718603143,-1,-2,-2,-2,-1,0,-3,-3
67718603143,-2,0,0,1,-1,-1,-1,-1
67718603775,0,-2,-1,-2,-1,-4,-1,-2
67718603775,0,-1,-1,-1,-4,-2,0,0
67718617489,1,-1,0,-2,-3,-3,-1,-1
67718617489,0,-2,-1,-1,1,1,0,-1
67718625789,1,1,-1,0,0,0,-2,-2
67718625789,-2,0,0,-1,0,-1,-1,-1
67718640014,-1,1,-2,0,-1,2,0,-2
67718640014,-1,-2,-3,-1,-3,-3,0,-2
67718648260,-2,-2,-1,-2,-3,-2,0,-1
67718648260,0,0,0,-1,1,1,1,-1
67718663109,0,-1,0,0,0,-2,-1,0
67718663109,0,-2,0,-2,1,-1,-2,-2
67718663759,-1,-1,-3,-1,-2,-2,-1,0
67718663759,0,-2,-1,-2,-2,-2,-2,-1
67718677507,-1,0,0,-1,-1,0,0,0
67718677507,-1,1,-1,-2,-2,-1,-2,1
67718685759,0,-1,0,-1,1,-2,-1,-1
67718685759,-2,0,-1,0,1,0,-2,-1
67718699760,-1,-1,-2,1,-2,0,0,0
67718699760,-1,-1,-2,0,0,0,-1,0
67718708235,-1,0,0,0,-2,1,0,-1
67718708235,-1,-1,-1,-2,0,-1,-1,0
67718723225,0,-1,-2,-3,-1,-2,-3,-2
67718723225,0,-1,-1,-1,-2,-1,-2,-1
67718723860,-1,0,-1,-2,-1,0,-1,-1
67718723860,-2,-1,0,0,-2,-2,-2,0
67718737499,-1,-2,-2,-1,1,0,0,0
67718737499,-2,0,-2,-1,0,0,-2,-1
67718746346,-1,0,-1,-2,-2,-2,-1,-1
67718746346,0,-1,-1,-1,-1,-1,-1,-2
67718759997,-1,-1,-2,-1,-3,-1,-1,0
67718759997,-1,-2,1,-2,-1,-2,-1,0
67718768258,-1,-2,-1,-2,-2,-2,0,-2
67718768258,-3,-1,-2,-1,0,1,-1,-2
67718783212,0,-2,-1,-2,-3,-1,0,0
67718783212,-2,-4,-1,0,-2,1,0,-2
67718783862,-2,0,0,-2,0,-2,-2,-1
67718783862,0,-1,0,-1,-3,-3,-1,-2
67718797482,-1,1,-2,-2,0,0,1,-1
67718797482,0,1,-2,-1,0,-1,0,-1
67718805678,1,-1,-2,-2,-1,-1,-2,-1
67718805678,-2,-1,-2,0,-2,-1,-2,-2
67718819999,-2,-2,-1,1,1,1,-1,-1
67718819999,-1,-3,-2,-2,-3,1,-1,-1
67718828199,-3,-1,0,0,-2,0,-2,-1
67718828199,1,-1,-1,0,0,1,2,-1
67718843148,-1,-1,0,1,0,0,-1,-1
67718843148,-2,0,0,-1,-2,-1,0,0
67718843821,-1,-2,-1,-1,0,0,0,0
67718843821,-1,0,0,-1,-1,-1,-2,-1
67718857501,0,-2,-2,-2,-1,-3,-2,-1
67718857501,-2,-1,-1,0,0,2,0,0
67718865795,-1,0,-3,0,-3,0,-2,-2
67718865795,-2,0,0,0,-1,0,0,-1
67718880020,-1,-1,-2,-1,-1,-1,-1,-2
67718880020,-1,-3,-1,0,1,-2,-1,-1
67718888227,0,-2,-1,0,-2,-2,0,-1
67718888227,0,-1,0,-2,-1,-2,-1,-1
67718903039,-2,-1,0,-2,-1,-1,-2,-1
67718903039,0,0,-1,-1,-1,-3,-2,-3
67718903878,-2,-1,1,0,0,-1,0,-1
67718903878,1,-1,-3,-1,1,-2,-1,0
67718917580,-2,-2,0,1,-1,0,0,-1
67718917580,-1,-1,-1,-1,-1,0,1,-1
67718925483,-1,-1,0,1,-1,-2,-3,-2
67718925483,-1,-1,-1,-1,-2,-1,-1,0
67718940104,-1,0,0,1,1,0,-1,-2
67718940104,1,-1,-2,-1,-2,0,-1,-1
67718948105,-3,-2,-1,-2,-2,0,0,-2
67718948105,0,-2,-1,-1,-2,-3,-1,-2
67718963213,0,-1,-2,-2,-1,-3,0,-3
67718963213,-2,-2,-1,0,-2,-3,-2,-1
67718963773,1,-1,-3,-1,-1,0,-1,0
67718963773,-2,-2,-1,-2,0,0,-2,-1
67718977529,-3,-1,1,-1,-1,-1,-1,-2
67718977529,-1,0,-2,-2,-2,0,0,-3
67718985515,-1,-1,-1,-1,-2,-2,0,-1
67718985515,0,-2,-1,1,-2,-1,-2,-1
67719000039,0,-2,-2,-1,-1,0,-2,0
67719000039,-1,-1,0,-2,0,-1,0,0
67719008063,-1,-1,-2,-1,1,-1,0,-1
67719008063,-3,1,-1,0,-2,-1,0,-1
67719023240,0,2,-2,0,-2,-3,-1,0
67719023240,-2,0,-1,-1,0,0,-1,-2
67719023801,0,0,-1,-2,0,1,0,-1
67719023801,1,-1,-2,1,0,1,1,-1
