timestamp,emg1,emg2,emg3,emg4,emg5,emg6,emg7,emg8
67666855486,-1,-1,-2,1,2,-1,-1,-1
67666855486,0,0,-2,-3,-3,-4,-2,-4
67666856142,0,-2,0,0,1,2,-1,2
67666856142,0,0,1,0,-1,2,-1,0
67666857761,0,-2,-4,-3,-4,-2,5,-1
67666857761,-1,0,0,0,-2,-3,-1,0
67666860757,-1,-1,-1,-2,-1,-3,-2,0
67666860757,-1,-2,0,2,0,0,-5,-12
67666867832,0,-2,-2,-1,0,1,5,16
67666867832,-1,-1,-1,2,2,2,-1,0
67666879252,-1,-1,-1,-2,0,0,-1,-2
67666879252,0,0,-1,-2,-2,-4,-1,0
67666882810,-3,-1,2,-2,-3,-2,-6,-7
67666882810,-1,-1,0,-1,-1,0,1,0
67666897836,-1,-2,0,1,1,1,-2,1
67666897836,1,-1,-2,-1,2,0,1,2
67666906496,-2,-1,0,-1,-2,0,-3,-4
67666906496,-1,-1,-1,-1,-1,-2,-1,2
67666914161,-1,-3,-2,-1,-2,-2,-2,-4
67666914161,-2,1,-1,-3,-2,-2,-3,-1
67666927735,0,0,0,1,-2,-1,-1,-2
67666927735,0,-2,-2,-1,-1,-3,-2,-1
67666937741,-1,-1,-4,-2,-2,-3,0,-1
67666937741,-2,-2,-2,0,-2,-1,0,1
67666975958,-1,0,0,0,2,-1,-1,-3
67666975958,-1,-1,0,0,-1,-1,-2,-2
67666977003,0,0,-2,-1,1,2,0,0
67666977003,0,0,-1,-1,1,-2,1,-1
67666980701,-1,0,-2,-4,-4,-2,-1,-1
67666980701,1,-2,1,-1,2,-2,0,-1
67666981461,-1,1,-1,-1,-2,-2,-2,-2
67666981461,0,-3,-3,-3,-9,-2,-1,-1
67666987457,-1,-3,-1,0,6,0,1,0
67666987457,-1,0,-1,0,1,1,2,-2
67666996448,-2,0,-2,-2,0,0,-4,-1
67666996448,-2,-1,0,-1,-4,-3,-2,-1
67667002447,-1,-1,0,-1,-3,-4,-2,0
67667002447,-1,-2,-2,-1,-1,0,-1,-2
67667017439,0,-2,-1,1,-1,-1,2,1
67667017439,-2,0,-1,0,1,0,0,0
67667033786,-1,-4,-1,-5,-3,0,-1,-2
67667033786,-1,0,0,0,-2,-1,-1,0
67667035444,-1,-1,-2,-3,-3,-5,-3,-4
67667035444,-1,0,-2,-1,3,0,1,-1
67667047464,-1,0,0,1,-1,-1,1,0
67667047464,-2,-1,-2,-3,-5,-4,-3,1
67667056470,0,-1,1,1,2,1,2,1
67667056470,0,-2,0,-1,-1,-2,-3,-3
67667062564,0,0,-1,-1,0,1,1,0
67667062564,-2,0,-2,-1,-4,-4,-5,-3
67667077622,-2,-3,-1,0,-1,2,0,1
67667077622,-1,-2,0,-1,1,-1,-2,-1
67667085132,-1,1,-1,1,-1,1,-2,-3
67667085132,-2,-2,-2,-2,0,2,3,-1
67667099999,0,0,1,-2,-10,-7,-2,-2
67667099999,-1,0,-1,1,7,3,-1,-2
67667107672,-1,-3,-3,-2,-5,-2,-3,0
67667107672,0,1,-1,1,4,2,0,-1
67667116456,-1,-1,0,0,-1,0,0,0
67667116456,0,-1,-1,-3,-7,-4,-2,1
67667122427,0,-1,1,-2,0,0,1,0
67667122427,0,0,-3,-2,-2,-2,-2,-2
67667137671,-2,-1,0,-4,-1,-3,-4,-1
67667137671,-2,-1,-1,0,-2,-2,0,0
67667145125,-1,-3,-2,1,0,0,-2,0
67667145125,-1,-1,0,2,2,2,1,0
67667159972,-1,-1,-2,-1,-1,-2,-1,0
67667159972,-2,-3,-1,-1,0,1,1,-2
67667167558,0,0,0,-2,-3,-3,-1,-3
67667167558,0,-3,-1,-4,-2,-1,-2,0
67667176450,-1,-1,-1,0,1,1,0,-1
67667176450,-1,1,0,-1,2,-1,0,-1
67667190850,-3,0,1,-1,0,-1,-1,-1
67667190850,-1,-2,-2,-1,-4,-5,-5,-2
67667197433,-1,-1,-1,1,1,1,5,-1
67667197433,-1,0,-1,-3,-3,-4,-3,-1
67667205070,1,0,0,-2,-8,-2,3,0
67667205070,-3,0,-1,0,7,0,-3,-1
67667220034,0,-1,-1,-1,0,1,1,0
67667220034,0,0,-1,-1,-1,2,-1,-1
67667227594,0,0,-3,0,-1,0,-1,-1
67667227594,-1,-1,0,-2,-2,-2,1,-1
67667236439,-1,-2,-3,-3,-4,-5,-2,-2
67667236439,-1,-1,0,2,5,5,-2,1
67667242500,-1,1,-1,-2,-2,-3,-5,-2
67667242500,0,0,-1,0,-3,0,5,0
67667257443,-2,0,-1,-2,2,-1,-3,-1
67667257443,0,0,-1,0,-3,-3,-1,-1
67667264905,-1,-2,-2,-3,-1,-1,-2,-1
67667264905,0,0,0,0,0,-1,-1,-1
67667280173,1,-2,-1,1,0,-1,-1,-2
67667280173,0,-1,-3,-3,-3,-2,-1,-3
67667287596,-1,-2,-1,1,-1,-1,0,-2
67667287596,-2,0,-2,-6,-6,-2,-1,0
67667296633,1,-1,-2,2,2,2,2,2
67667296633,-3,-1,1,0,3,-2,0,-1
67667302609,-1,-2,-2,-1,1,0,0,0
67667302609,0,-2,-3,-3,-5,-3,-3,-3
67667317585,-1,-1,0,-2,-2,0,-2,-1
67667317585,-2,-2,1,-3,-5,-2,1,0
67667325138,-2,-1,-1,1,3,1,3,0
67667325138,-1,-2,1,1,-2,-2,-2,0
67667340143,-1,0,-2,-2,0,-2,-2,0
67667340143,-1,-1,-2,-2,-2,-1,0,-2
67667347421,0,1,1,1,0,-1,0,-1
67667347421,-2,-1,0,-1,-1,0,-3,-2
67667356480,-1,-1,-3,-2,-3,-3,-4,-2
67667356480,0,0,-2,-1,0,1,-1,0
67667362596,-1,0,-1,1,2,0,-2,-1
67667362596,0,0,-1,1,0,0,5,2
67667377632,0,1,-1,-4,-3,-1,-2,0
67667377632,-1,-1,-1,-1,-3,-1,-5,-1
67667384945,0,-3,-2,0,-2,-2,-1,0
67667384945,-2,0,-2,0,0,0,-1,-2
67667400156,-1,-2,0,-1,-3,-2,0,-2
67667400156,2,0,1,0,-1,-2,-1,-1
67667407594,-1,-1,1,-1,2,2,0,-1
67667407594,-2,0,-2,-1,-1,-1,-3,-2
67667416470,-1,-1,-1,0,0,1,-1,-1
67667416470,-2,-2,-1,1,0,-1,1,0
67667430592,-2,-4,-2,-2,-1,-1,-2,0
67667430592,-2,-1,-3,-1,-2,-1,-1,-1
67667437632,-2,0,1,0,-2,-1,1,-1
67667437632,-1,-1,-2,-1,0,0,-2,-2
67667445157,1,1,-2,-3,-1,-2,-3,-1
67667445157,-1,-1,-1,0,0,0,-1,0
67667460211,0,-3,0,-1,-2,-1,0,-1
67667460211,-2,-1,0,0,5,-1,-1,-1
67667467696,-2,-1,0,-1,-1,1,0,0
67667467696,1,-2,-3,-3,-2,-3,-3,-4
67667476479,-1,0,-2,-1,-1,-3,-2,-2
67667476479,0,-2,0,-1,-2,0,-1,0
67667490751,-1,-1,-2,-1,-4,-4,-1,-2
67667490751,-2,0,0,0,4,-1,1,2
67667497576,-2,-2,-4,-4,-2,0,-3,-3
67667497576,-1,-2,0,0,-5,-3,1,-1
67667504922,-1,-2,-2,-1,2,1,1,1
67667504922,0,0,1,-1,1,1,0,-1
67667519891,-1,1,-1,0,1,-2,-1,1
67667519891,-1,0,-1,0,1,1,1,0
67667527576,-1,-2,-3,-3,-3,-1,-2,-2
67667527576,-2,-1,1,-2,0,0,-2,-2
67667536480,-2,0,0,-2,-4,-3,-1,-1
67667536480,-1,1,-4,-2,-5,-1,0,-2
67667550767,-1,1,1,3,3,2,-2,1
67667550767,0,-1,-1,-2,-3,1,0,-2
67667557601,-2,-1,-1,-3,1,-1,-5,-1
67667557601,-2,-2,0,-2,-2,1,-1,1
67667565093,-1,-2,-1,0,-3,-3,-1,-3
67667565093,0,-2,-3,0,-2,-2,-4,-1
67667580151,0,-1,0,1,-3,1,3,-1
67667580151,-1,-1,-2,-2,-3,0,0,1
67667587672,-2,1,0,1,1,-1,-2,-3
67667587672,-1,1,-1,-3,-3,0,0,0
67667596474,0,-3,-1,-1,-1,-4,-4,-1
67667596474,-3,-1,-3,-2,1,1,1,1
67667610634,0,-1,0,1,1,-1,0,-2
67667610634,-1,0,1,1,-2,-1,0,0
67667617599,0,-1,0,0,2,2,-1,0
67667617599,-1,-4,-3,-4,-4,-5,0,-2
67667625072,0,0,-2,-1,-3,-2,-9,-1
67667625072,-2,-1,1,-1,1,1,12,0
67667639929,-2,-2,0,2,-2,0,-1,-1
67667639929,1,0,1,0,8,-3,-5,-2
67667648336,-3,-4,-2,-2,-2,0,2,0
67667648336,-2,-2,-5,-3,-2,-1,-7,0
67667656432,-1,0,1,0,-3,-1,-2,-3
67667656432,0,-1,-3,-2,-5,-3,-1,-3
67667670700,-2,-1,0,0,-1,-1,1,-1
67667670700,-1,-1,1,-4,-3,-2,-3,0
67667677534,-1,-1,1,0,1,1,1,0
67667677534,-1,-2,-1,-1,3,1,-4,-1
67667685124,0,0,0,0,-1,-3,-1,0
67667685124,-1,0,-1,1,-2,-1,-3,0
67667700181,0,-1,-4,-1,-2,-5,-1,-2
67667700181,0,-1,2,0,-3,-2,1,-2
67667707609,1,0,-2,0,0,3,3,2
67667707609,-1,-2,-1,1,2,0,-1,-3
67667716451,-2,1,-2,-1,-2,0,2,1
67667716451,-2,0,-2,0,1,1,-1,-1
67667730851,-1,-2,-1,-3,-2,-2,0,-1
67667730851,-1,-2,-2,0,-2,-3,-3,-5
67667737495,-1,0,-2,1,1,3,1,1
67667737495,0,0,-1,0,-3,-3,-1,0
67667745154,-2,0,1,0,-1,-2,-1,-2
67667745154,-1,0,0,-2,0,1,-3,1
67667759932,0,-1,-2,-4,-1,0,-1,-2
67667759932,-1,-2,0,-1,-4,-2,0,1
67667767415,2,1,-1,0,-1,1,3,1
67667767415,-5,-4,-2,-2,-1,-4,-3,-7
67667776484,0,-1,0,-2,0,-2,-2,-1
67667776484,0,0,-3,-4,1,1,-2,0
67667790953,-2,-2,-1,-2,0,-2,2,-1
67667790953,-5,0,-2,0,-2,-3,0,-2
67667797577,3,-4,-3,-2,-1,-1,2,2
67667797577,0,1,-1,1,0,-1,-4,-1
67667805149,-2,-3,1,-5,-4,-2,-2,0
67667805149,-1,-1,-12,-6,-2,0,0,-2
67667820140,5,-2,3,4,-3,-2,-2,3
67667820140,-8,2,4,3,-2,-2,0,-4
67667827602,-8,1,-2,-6,0,2,-1,-3
67667827602,8,0,8,4,1,0,1,3
67667836508,1,0,-1,-10,-1,-1,-3,-1
67667836508,1,-9,-21,-18,-6,-3,0,1
67667850629,9,1,11,8,0,-2,-2,5
67667850629,-25,-2,-12,-9,1,0,-3,-9
67667857594,4,1,-4,2,2,0,1,0
67667857594,-3,1,16,18,3,3,3,-3
67667865063,-10,-3,-7,-6,-4,-5,-5,-10
67667865063,15,-2,-6,-9,-2,0,-2,6
67667879926,-2,-2,-3,-1,-1,-1,0,-2
67667879926,14,3,5,7,1,1,3,4
67667887605,1,0,-15,-4,-1,-1,1,4
67667887605,13,5,30,24,6,3,0,2
67667896452,-27,-13,-36,-28,-10,-5,-3,-12
67667896452,14,-1,-42,-10,-3,-2,-3,2
67667910783,-10,0,25,5,2,-2,-2,-3
67667910783,17,1,10,7,0,-1,1,2
67667917513,-27,0,4,5,2,2,-2,-5
67667917513,-4,-3,-3,1,0,-1,-1,3
67667925103,-6,-1,-2,0,0,0,0,-8
67667925103,-1,-4,-28,-7,-3,-2,0,1
67667940192,10,1,9,9,0,-3,-4,3
67667940192,4,-1,6,-7,0,1,1,-7
67667947502,-7,-2,0,5,-1,0,-1,-2
67667947502,-4,0,7,-4,-6,-4,-2,-2
67667962420,3,-1,4,-4,4,1,1,-3
67667962420,-8,-4,3,-2,-3,-5,-3,-3
67667970638,4,-3,1,-2,0,4,0,2
67667970638,-9,-2,2,-4,1,0,0,-4
67667985717,2,1,3,8,-2,-3,-1,5
67667985717,5,0,9,3,0,0,-2,2
67667986587,-2,-3,-2,-2,-2,-1,-2,-2
67667986587,0,-3,-19,-8,-4,-1,0,4
67667999966,3,2,17,0,3,0,-1,2
67667999966,-7,-2,7,8,0,0,-1,-4
67668007648,2,0,-11,-15,-2,-3,-1,0
67668007648,-2,-3,-26,-7,-5,-3,-1,1
67668022495,-1,1,12,3,-1,-2,-3,-4
67668022495,-7,0,-5,-2,0,-1,-1,-1
67668030671,5,0,-3,1,-4,-3,0,3
67668030671,-3,-2,11,3,4,1,-1,-1
67668045735,1,-3,-12,-5,0,-1,-1,-1
67668045735,-5,0,3,-2,-2,-2,0,3
67668046413,1,0,-2,0,-3,-2,-4,-7
67668046413,-1,3,-2,1,-2,-2,-1,3
67668060038,4,3,4,4,-4,0,-3,-2
67668060038,-15,-1,0,-1,-4,-2,-3,0
67668067442,3,-2,-9,-3,-5,-1,-3,-2
67668067442,-7,-1,9,8,13,6,3,-1
67668082431,-4,-1,1,-4,2,1,0,-2
67668082431,13,1,-3,-13,-4,-2,-1,0
67668090635,-6,-2,11,5,-3,-2,-2,3
67668090635,-1,-2,-4,-3,-7,-4,-2,-4
67668105587,1,2,8,2,1,1,3,2
67668105587,-5,-8,0,-1,1,1,1,-3
67668106603,1,0,-12,2,-3,-2,0,0
67668106603,2,-3,-8,-9,-1,-1,-3,-2
67668120167,0,0,-4,2,-1,0,0,-3
67668120167,-4,1,19,6,0,0,-1,-4
67668127618,2,-4,4,0,0,-4,-3,-1
67668127618,-2,0,39,7,-1,-2,0,1
67668142681,-3,-5,-40,-16,-6,-3,-2,-6
67668142681,6,1,-1,1,1,1,-1,8
67668150857,-1,-1,-6,0,3,3,1,2
67668150857,-2,-2,2,3,-2,-2,-4,-6
67668165859,-1,-2,5,1,-2,-4,-1,-1
67668165859,-4,2,-1,0,-6,-1,-2,-1
67668166494,1,1,-2,-2,4,2,1,-2
67668166494,-1,-1,-9,-4,-5,-1,-1,2
67668180339,-1,0,3,1,0,-1,-3,0
67668180339,-1,-1,-8,-1,-1,-1,0,-4
67668187675,3,0,4,1,0,0,1,0
67668187675,-11,-3,-9,-1,-1,0,-2,-5
67668202402,7,3,4,1,-4,-4,0,1
67668202402,-2,-4,-10,-9,-2,-3,-4,-3
67668210886,-7,1,-3,-1,-2,-2,0,0
67668210886,1,-7,10,1,1,-1,0,1
67668225566,0,-1,0,-1,0,2,1,-1
67668225566,-1,-2,-2,-5,-1,-1,-1,0
67668226404,1,0,0,-1,-2,-3,-1,-1
67668226404,1,1,-7,-1,-4,-1,-1,-2
67668239962,-2,-1,-1,1,-1,-1,-2,2
67668239962,-2,-3,-5,1,3,2,3,-5
67668247632,1,1,-4,1,3,2,2,3
67668247632,-2,-8,-6,-7,-3,-6,-6,-12
67668262480,1,-2,2,0,-2,-1,0,2
67668262480,-3,2,3,-1,-3,-2,-2,-1
67668270964,-3,-2,-7,-3,-1,-2,-1,-1
67668270964,2,1,-4,0,-2,0,2,3
67668285701,1,-1,6,-1,2,-1,-2,-1
67668285701,-3,-4,-10,-3,-5,-3,-3,-5
67668286348,0,0,2,7,3,-1,-4,-2
67668286348,-3,-1,-4,-8,-2,-1,-2,-1
67668299940,-2,-3,-9,-2,-7,0,0,-1
67668299940,2,1,0,-3,4,0,1,5
67668307420,-9,1,0,-2,-1,0,-3,-7
67668307420,4,-2,0,5,2,1,0,4
67668322513,3,-3,1,-1,-1,0,0,1
67668322513,0,-1,-1,-1,-1,-3,-3,-1
67668330621,-3,2,0,-3,-5,-3,-1,-1
67668330621,-1,3,-5,2,2,-1,-4,-2
67668345591,-2,1,11,-4,0,0,0,-2
67668345591,-6,-2,-14,3,-1,1,0,-2
67668346419,5,0,2,-4,-1,1,-1,0
67668346419,0,1,-2,0,-7,-1,1,1
67668359996,-1,-2,-1,0,-3,-3,-1,-1
67668359996,0,-4,1,2,5,-1,-7,0
67668367505,-2,-3,-5,-6,-5,-4,6,-2
67668367505,0,7,14,-2,1,1,-2,2
67668382680,-6,-13,-36,-4,0,0,2,-1
67668382680,-4,8,16,1,1,1,-1,-1
67668390758,5,-12,-2,-4,-3,-1,-5,-2
67668390758,-5,1,-8,1,-2,-5,-3,1
67668405092,4,7,2,8,3,4,5,2
67668405092,1,14,-12,-11,4,4,2,-1
67668413286,-6,-21,29,6,-9,-8,-4,-3
67668413286,-3,5,-7,-3,25,4,-6,-3
67668420056,-1,1,1,1,-7,-2,-4,0
67668420056,0,-6,-1,2,-5,-2,6,-1
67668427664,0,9,-2,-5,-8,-7,-24,0
67668427664,-1,-10,-2,-3,-8,4,22,1
67668442508,-4,-4,1,3,12,5,-2,0
67668442508,2,-2,12,0,0,0,0,-3
67668450825,-8,3,-7,-6,-7,-4,-4,-5
67668450825,0,-4,0,0,-9,-6,-9,1
67668465162,5,3,-2,-1,5,3,1,2
67668465162,-4,-6,4,1,-5,-1,0,0
67668473096,4,2,-6,3,4,4,7,3
67668473096,-4,-4,-9,-1,-1,-4,-5,-6
67668479902,-2,1,10,-1,-1,-1,2,0
67668479902,-3,-6,-2,-2,-2,-4,-7,-5
67668487591,0,2,-9,1,2,0,4,2
67668487591,-1,1,3,-1,-2,1,1,0
67668502442,-1,-2,3,-3,-6,-4,-5,-3
67668502442,-2,-2,0,1,-1,-2,-3,-1
67668510876,1,-1,-4,0,6,5,5,-1
67668510876,-1,1,3,3,-3,1,0,-1
67668524899,-1,-3,1,-1,0,-2,-1,0
67668524899,-1,-3,-4,-1,-2,-1,0,-1
67668533142,0,1,-2,0,0,-1,1,-2
67668533142,0,-2,-1,-2,-3,-2,-3,-1
67668548113,-3,0,-3,-2,-4,-5,-3,-3
67668548113,0,0,-1,0,2,2,4,1
67668548876,-1,1,-3,-2,3,-1,-1,-1
67668548876,-1,-4,1,0,-3,-1,-1,-2
67668562559,-2,0,-1,-2,-2,-3,-2,-1
67668562559,0,-1,0,-1,-1,-1,-2,-1
67668570796,-1,-1,-3,1,0,-1,-1,1
67668570796,-2,-1,-2,-2,-2,-1,0,-2
67668585066,-1,-1,1,-2,-2,-2,1,-2
67668585066,0,-2,-2,1,-3,-2,-2,3
67668593239,-1,-1,-3,-1,-6,-1,0,-5
67668593239,-3,1,0,2,9,2,0,2
67668608322,-3,0,-2,-1,-3,-3,-4,-7
67668608322,0,0,-1,-1,-1,-1,-1,0
67668608955,-1,-1,-1,-1,1,3,1,2
67668608955,1,-2,-1,-1,-5,-5,-2,-3
67668622634,0,-1,0,2,4,2,2,2
67668622634,-2,-2,-3,0,0,-2,-1,-3
67668631467,1,-1,0,-1,3,1,0,-1
67668631467,1,-1,-2,0,-4,-1,-2,0
67668645153,-1,0,-1,-2,-3,-4,-2,-1
67668645153,-1,-2,1,0,-3,-2,-1,-1
67668653905,0,-2,-1,-1,0,-1,-1,0
67668653905,-1,0,0,0,-1,-2,-1,-2
67668668743,-2,-2,-1,-1,-7,-3,-3,-2
67668668743,-1,0,-2,2,7,2,0,-1
67668670373,0,-1,-2,-1,0,0,0,-1
67668670373,-1,0,0,0,-2,-1,-1,-1
67668682617,-2,1,0,-1,-2,-2,0,-3
67668682617,0,-1,-1,-2,-2,-2,-1,-1
67668691466,-1,-2,-1,2,5,2,0,0
67668691466,0,-2,-2,-1,-1,0,0,1
67668705021,-3,-1,-1,-1,0,-1,-3,-6
67668705021,-3,-3,-1,-3,-4,-4,-3,-1
67668714004,-2,-1,-2,-2,-3,-3,-2,-1
67668714004,-2,0,-2,-1,0,0,1,-1
67668729023,-1,-3,-1,-2,1,0,-1,0
67668729023,-1,-1,0,0,-1,2,0,-1
67668730393,0,0,0,-2,-3,1,0,0
67668730393,-1,-3,-2,-2,-3,-1,-5,-3
67668742537,-1,-1,-1,0,-1,-2,-1,0
67668742537,-1,-1,-1,-3,-1,-2,-1,1
67668751469,0,1,0,0,-5,-2,-2,0
67668751469,1,-1,0,1,5,-1,0,0
67668765164,-1,-2,-2,-1,1,0,0,0
67668765164,0,0,1,-3,-3,0,-2,-3
67668773969,-2,-2,-2,0,0,-1,1,-1
67668773969,-4,0,-2,0,-2,-2,-1,-1
67668788761,2,-1,-2,0,-3,-2,-2,-1
67668788761,1,0,0,0,-2,0,1,2
67668790367,-1,0,0,-1,3,-2,-2,0
67668790367,-1,-2,-2,-5,-4,0,0,-2
67668802451,1,-1,0,-1,2,2,1,2
67668802451,-4,-2,-1,0,-1,-1,0,-3
67668817537,0,-1,0,-2,-1,-2,0,-3
67668817537,-2,0,1,0,-2,-1,-1,-2
67668825144,0,-2,-3,-1,-8,-3,-1,-1
67668825144,-1,-1,-1,0,6,3,1,-1
67668833933,-1,-2,-2,-1,-1,-1,-1,1
67668833933,0,-1,-2,-1,-1,-1,0,-2
67668848971,-2,-1,-2,0,-1,0,0,-1
67668848971,0,0,-2,-2,-5,-2,-2,0
67668850417,-2,-2,-1,-1,-1,-3,-1,-1
67668850417,0,0,0,-1,-1,1,0,1
67668862628,0,-1,-1,-1,2,1,0,1
67668862628,-3,-1,-1,1,-3,-2,-1,-1
67668871500,-2,-2,0,-2,-1,0,-1,-1
67668871500,2,0,-1,-2,-4,-1,-3,-3
67668885059,-1,-1,0,1,0,0,1,-1
67668885059,-1,-3,-4,-1,-3,-1,-2,-1
67668894044,1,1,-1,-1,2,2,-1,0
67668894044,-2,-1,-1,0,1,0,-2,0
67668908794,-1,-1,0,-3,1,0,-2,-1
67668908794,-2,-1,-1,-3,-7,-3,0,-1
67668910339,-3,0,-1,-2,6,-2,-1,-1
67668910339,0,-2,-1,-3,-5,-5,-4,-2
67668922581,-1,0,0,0,1,1,0,-1
67668922581,-1,-1,-1,0,3,2,1,-1
67668931448,-2,0,0,-1,-3,-1,-1,-1
67668931448,-1,-2,-1,-2,-1,-2,0,-1
67668945125,-3,0,-2,-3,-2,-3,-2,-1
67668945125,0,-3,-1,-2,-4,-2,-2,-2
67668953973,0,-1,0,0,0,-3,-1,-1
67668953973,0,-2,-2,0,1,1,-1,1
67668968954,-2,0,-1,0,-1,-1,0,0
67668968954,-3,-1,0,0,2,0,-1,-2
67668970427,0,-1,-1,-1,2,1,1,-1
67668970427,-1,-1,-1,-3,-2,0,1,-2
67668982550,-1,-2,-1,-2,-2,-2,-1,0
67668982550,0,-1,0,-3,-3,-3,-2,-1
67668991394,0,-1,0,-1,1,0,-1,-1
67668991394,-1,0,-1,0,-2,1,0,0
67669005092,-1,0,-2,0,0,-1,-2,-1
67669005092,-1,0,-1,-1,-2,-1,-1,0
67669013992,0,-1,-2,-1,-4,0,-1,0
67669013992,-1,-1,0,0,2,0,1,-2
67669029012,0,-2,0,-3,-2,-2,-1,0
67669029012,-1,1,-2,1,0,-3,-1,-2
67669030469,-1,-2,-4,-1,-3,-1,-1,-1
67669030469,-2,1,0,0,0,-1,-2,-1
67669042606,-1,-1,0,0,-1,-2,-1,-2
67669042606,1,-4,-1,-1,1,1,-2,-2
67669051480,0,1,-2,-3,-3,0,-2,0
67669051480,-1,0,0,-2,-3,-3,-2,-2
67669065116,-2,0,0,-2,5,2,0,0
67669065116,-1,0,-2,0,1,0,0,0
67669073970,-1,-2,-3,-2,-1,-3,-2,-2
67669073970,0,-2,0,-1,-2,0,0,2
67669088781,-2,0,1,-1,-2,-2,-1,-1
67669088781,0,0,0,-1,-3,-1,-1,0
67669090444,-2,-4,-3,0,0,0,1,-1
67669090444,-2,-3,-1,-2,-3,-2,0,-2
67669102442,-1,0,-1,0,-1,1,-2,-1
67669102442,-1,2,0,-1,-3,-2,0,1
67669111429,-1,-2,-2,0,-1,0,-1,-2
67669111429,-2,-2,-2,0,0,-3,-1,-2
67669125117,-3,-2,-1,0,-1,-1,-2,-1
67669125117,-2,-2,-1,-2,0,-3,-2,1
67669133929,-3,-1,0,-3,-2,-1,-1,-2
67669133929,-1,0,-2,-1,0,-1,0,-2
67669148909,1,0,0,0,-1,1,1,0
67669148909,-1,1,-3,3,2,2,0,0
67669150495,-1,-1,-2,-2,-2,-3,-2,-3
67669150495,-2,-1,-2,-2,-2,0,-2,0
67669162569,0,-3,-3,-3,-8,-4,-3,-1
67669162569,-1,-2,-1,0,7,1,-2,-1
67669171456,1,1,0,1,0,0,0,0
67669171456,-1,-1,-1,-2,-2,-2,-2,-1
67669185122,0,-2,-4,-2,-1,-1,0,-2
67669185122,-1,-3,-1,-2,-3,-2,0,-1
67669193931,-2,-1,0,0,-1,-2,-1,-2
67669193931,1,-1,-1,-2,-1,0,1,-1
67669208871,-2,-1,-2,-1,-2,-2,-1,-2
67669208871,2,-1,-1,-3,-3,-1,-3,-3
67669210491,-1,-2,-1,-1,0,1,-2,-1
67669210491,-1,-2,0,1,1,0,1,0
67669222698,1,0,-2,-3,-1,-3,-2,-2
67669222698,-1,-2,-3,-1,-2,-1,1,-1
67669231447,0,-1,-2,-1,-2,-3,0,0
67669231447,-2,0,-2,-1,-2,-2,-2,-3
67669245102,-1,-2,-1,1,-1,0,-1,1
67669245102,-2,0,-1,-3,-6,-3,-3,-1
67669253864,-2,-2,-1,-1,5,1,0,0
67669253864,0,0,0,-1,1,-1,-1,-1
67669268780,-1,-1,-2,-1,0,-1,-1,-2
67669268780,0,-1,0,-1,0,-1,1,-2
67669270428,0,-1,-1,0,-5,-1,-1,-1
67669270428,0,-2,-3,-1,-2,0,-1,0
67669282558,-2,0,1,-1,3,1,1,0
67669282558,-2,0,-2,-2,-4,-2,-2,-2
67669291557,-1,-2,-1,-4,-3,-2,-2,-2
67669291557,-1,0,-3,0,0,2,1,0
67669305059,-1,-1,0,-1,-2,-2,-1,-1
67669305059,0,0,0,-2,-1,0,-1,-1
67669313950,0,0,-2,-1,-2,-4,-2,1
67669313950,-1,-1,-1,0,2,0,-1,-1
67669328331,-1,0,-2,-1,-4,0,-3,0
67669328331,-2,0,0,0,3,0,0,1
67669335085,-2,-2,0,0,-1,1,-1,-1
67669335085,0,-1,2,-1,-1,-1,1,-1
67669342571,0,-2,-2,-1,-1,0,0,-1
67669342571,1,0,0,-1,0,0,-1,-1
67669351478,-1,-1,-2,-3,-3,0,0,0
67669351478,1,-2,-2,0,-1,-3,-2,0
67669365115,-2,0,1,-1,1,-3,-1,-4
67669365115,-1,-2,-1,-1,0,2,1,-3
67669373871,0,0,0,0,-1,-1,-2,-1
67669373871,-1,0,-2,-1,-2,0,0,-1
67669388400,0,-1,-2,-1,-2,-1,-1,-2
67669388400,-1,-3,0,1,0,-2,-3,-1
67669394967,0,0,-1,-1,0,2,1,-2
67669394967,-1,-2,-1,-4,-3,-2,-1,-2
67669402580,1,-1,-2,-2,3,2,0,0
67669402580,-2,1,-2,-3,-3,-3,-1,-1
67669411465,0,-4,-3,1,-1,0,-1,0
67669411465,-1,-1,1,0,-1,-1,-1,0
67669425110,0,-1,0,0,-1,0,0,-1
67669425110,0,-2,-1,0,-3,-1,-1,-2
67669434033,0,-1,-1,-2,0,-4,-4,-3
67669434033,-1,-1,-3,-1,-2,-1,0,-3
67669448330,-2,-3,-3,-1,1,-1,-2,-1
67669448330,-2,0,0,-1,-2,1,0,0
67669455092,0,-1,0,0,-6,-1,1,1
67669455092,1,0,0,-2,-4,-5,-2,-2
67669462568,-1,-1,-2,0,1,2,0,-1
67669462568,-1,-2,-2,1,2,1,0,1
67669471482,-2,-3,-2,-1,-2,-3,-3,-3
67669471482,-1,-1,0,-2,-8,-3,-1,-1
67669485134,1,0,0,0,6,-1,-2,-1
67669485134,-1,-1,-1,0,-3,0,1,1
67669493863,-1,-2,0,-1,1,-1,-1,0
67669493863,-1,-1,-1,0,1,-1,-3,-1
67669508148,-2,0,-2,-1,-5,-2,0,-1
67669508148,-1,-1,0,-3,-1,-2,-2,-3
67669515160,-2,0,1,1,0,-1,1,0
67669515160,-2,-3,-2,0,1,2,1,0
67669531450,0,-1,0,-1,-1,-1,-1,0
67669531450,-1,-2,-1,0,-1,-1,1,0
67669532874,-1,0,-1,-1,-3,-1,-3,-2
67669532874,-1,-2,-3,-1,-2,-2,-1,0
67669545152,-3,-2,-2,-3,-4,-4,-1,-2
67669545152,-1,0,-1,0,0,-1,-3,-1
67669553977,0,0,-1,-1,2,-2,1,-1
67669553977,-2,-2,-1,-2,-5,1,-1,-1
67669568229,0,-1,-1,-1,1,2,0,2
67669568229,-2,-2,-1,-2,-2,-1,-1,-3
67669575125,0,-1,0,0,-1,1,0,-1
67669575125,0,0,-4,0,-2,-3,-1,-1
67669591542,0,-1,-1,-1,-5,-5,-3,-1
67669591542,0,-3,0,1,5,3,0,1
67669592982,-1,-3,-2,-2,-2,1,0,-1
67669592982,-1,-2,-1,-1,2,-1,0,-1
67669605053,0,1,-3,0,-3,-2,-2,-2
67669605053,-2,0,0,-1,-2,-2,-2,-2
67669613896,-1,-1,-2,-2,-1,-2,1,-2
67669613896,1,0,1,-1,3,1,0,0
67669628282,-1,-1,-2,-2,-2,-1,-2,-1
67669628282,-1,-1,-1,-1,-3,-2,-1,-1
67669635091,-1,0,0,-1,0,0,0,-1
67669635091,-3,1,-1,-1,-5,-3,-2,-2
67669651439,-1,-2,-2,0,6,2,0,1
67669651439,0,0,-2,0,-2,-1,-1,-2
67669652883,-2,0,-1,0,-1,-1,-1,-1
67669652883,-1,-2,-1,0,-1,0,2,-2
67669665042,-1,-1,-1,-2,-4,-1,0,-2
67669665042,0,-1,-4,-4,-4,-5,-4,-2
67669674010,0,-2,-2,0,2,0,0,0
67669674010,0,-1,1,-2,2,2,-3,-1
67669688199,-3,-2,-1,-1,0,0,2,-1
67669688199,-1,1,-2,-2,-2,-5,-3,0
67669694979,0,0,-2,-3,-6,-3,-1,-2
67669694979,-2,-1,2,-1,0,-1,-9,-2
67669711396,-1,-1,0,2,1,-1,5,0
67669711396,-1,-1,-1,0,2,0,1,0
67669712904,0,0,-1,-1,-5,-1,-3,0
67669712904,0,-1,-3,-3,3,-1,1,2
67669725117,-2,-4,-1,-1,-3,-2,-5,-1
67669725117,-2,-1,0,0,-1,0,1,-1
67669733872,-2,-2,-1,-2,0,-2,0,-2
67669733872,0,-1,-2,2,-1,1,0,-2
67669748047,-3,-1,-1,-2,-3,0,-1,-1
67669748047,0,-1,-2,-3,-3,-4,1,-1
67669754912,-2,-1,-2,-1,0,1,-1,-2
67669754912,-1,1,-2,-3,-2,-1,1,-1
67669771249,-3,-1,0,-1,-1,0,0,-1
67669771249,-1,1,0,-2,-2,-1,-3,-1
67669772901,-1,-1,-1,-1,-1,-4,-3,-1
67669772901,-1,-3,-1,-1,-1,-1,0,1
67669784894,0,0,0,-1,-3,-1,-2,-1
67669784894,-1,-4,-1,-2,0,0,0,-1
67669793887,-2,-1,-1,0,-6,-1,-1,0
67669793887,0,0,-1,2,6,2,0,-1
67669808093,0,-1,-1,-2,-2,-3,-2,1
67669808093,-1,-2,-1,-1,0,-2,-1,0
