timestamp,emg1,emg2,emg3,emg4,emg5,emg6,emg7,emg8
51491702500,4,2,5,19,-2,2,2,-3
51491702500,1,1,1,6,2,5,2,1
51491703257,1,-2,-8,-38,-14,-9,-2,-1
51491703257,-2,-1,3,15,9,2,2,0
51491704083,2,-1,-4,-10,-7,-3,-4,-2
51491704083,1,0,8,3,-6,-2,-1,0
51491709560,-4,0,-3,1,11,7,1,0
51491709560,1,2,-5,-9,-7,-2,0,-1
51491711147,2,-5,-5,-16,1,0,-1,2
51491711147,1,-2,-2,1,-3,0,3,0
51491714943,3,4,4,1,0,-3,-7,1
51491714943,-11,-7,-4,0,-2,-4,-4,-6
51491724071,-12,-1,0,5,9,5,5,7
51491724071,-1,1,-5,-2,-15,-9,-10,-9
51491737450,-11,-3,2,5,-7,2,1,-7
51491737450,2,3,-1,-4,-5,-2,0,2
51491746377,8,0,0,0,0,-5,-2,2
51491746377,-10,-2,0,4,17,-4,-19,3
51491760167,22,6,-1,5,-18,-4,13,-2
51491760167,3,-4,-14,-54,-10,10,33,10
51491768957,-18,-2,9,38,19,19,35,-14
51491768957,5,3,-1,3,16,5,7,7
51491783783,-5,0,1,3,-17,-8,-17,-5
51491783783,1,-4,-1,28,8,3,-12,0
51491785423,2,1,-11,-62,-23,-16,-8,2
51491785423,2,-4,-6,-4,-1,0,1,-3
51491791726,-4,-4,3,6,2,3,3,3
51491791726,1,-3,-2,1,-25,-16,-7,2
51491842595,-2,0,3,16,-6,-4,-3,-3
51491842595,-3,2,4,18,5,1,-1,0
51491850071,0,0,-5,-21,-5,-4,-2,0
51491850071,4,7,0,6,-9,-4,-5,0
51491857441,12,-5,-2,-3,9,-4,-14,5
51491857441,-33,-9,-5,-2,-5,-9,1,-15
51491864996,-4,-7,-7,4,3,-3,4,-10
51491864996,4,0,-3,-3,-2,10,3,6
51491875197,-8,-3,0,-2,-5,0,4,-4
51491875197,12,2,0,-4,1,-8,-23,8
51491876678,9,-4,-1,3,12,14,16,5
51491876678,0,3,4,6,-2,-3,-7,-4
51491877527,-1,4,-10,-49,-18,-1,27,6
51491877527,-7,-6,4,60,27,3,-19,-22
51491881435,-3,3,1,-20,-22,-9,-8,3
51491881435,-4,-3,7,22,22,2,2,-3
51491887535,13,5,13,11,4,3,-5,4
51491887535,4,3,7,4,0,3,13,8
51491902567,-1,5,1,-4,-5,-2,-3,-1
51491902567,-8,-5,-9,-8,-3,-5,-1,-3
51491909914,-16,-2,-8,-6,-7,-13,-28,-11
51491909914,7,2,-3,-16,0,27,39,9
51491925073,5,0,11,32,2,-8,-12,-3
51491925073,-4,-2,-2,7,23,0,3,3
51491932439,-2,-11,-19,1,-34,-18,-13,-18
51491932439,16,2,-4,-38,-10,-1,-3,10
51491947551,-8,5,11,23,24,11,0,-1
51491947551,0,-4,-1,-14,-26,-3,2,-2
51491956284,-9,-3,-7,24,40,4,-2,-4
51491956284,-5,-2,-3,-5,-13,-9,-10,-1
51491957924,8,0,5,-4,-16,-5,3,0
51491957924,-3,-3,-4,0,5,1,-5,-2
51491970083,-4,-3,-2,0,10,9,10,9
51491970083,8,5,-12,-38,-18,-10,-24,-6
51491985018,3,-7,1,8,1,9,10,2
51491985018,-18,-5,-4,-22,-9,-13,-28,-14
51491992599,8,5,5,3,3,25,51,10
51491992599,3,0,10,41,3,-8,-19,6
51492007386,-19,-8,-7,-4,4,5,58,-13
51492007386,6,-2,-9,-31,-10,7,6,4
51492015065,2,1,2,-14,-12,-6,-8,-1
51492015065,-3,-1,-2,3,8,2,1,0
51492037350,4,1,-2,10,-1,-7,-21,1
51492037350,-5,-2,-5,3,-6,-5,-1,-1
51492046983,-4,-1,-6,-7,-1,-1,0,1
51492046983,2,-6,12,18,-5,-5,-3,-4
51492048559,-1,-3,-20,-43,-12,-14,-19,1
51492048559,6,2,7,17,0,9,11,-2
51492049356,-6,-3,1,-16,6,-5,-15,-1
51492049356,-3,7,10,29,-21,-5,3,-2
51492059918,0,-12,-20,-46,-10,1,-5,1
51492059918,3,-1,16,29,11,-1,-7,1
51492067408,1,0,5,10,-3,-17,-20,-3
51492067408,-2,-3,-9,-14,0,3,-3,0
51492082410,8,7,-4,9,5,-4,-20,9
51492082410,18,0,-4,-10,5,17,42,-2
51492089910,-4,-3,6,15,-3,-2,-16,-3
51492089910,1,-4,-12,-26,-1,-3,13,-4
51492105051,-1,0,6,13,-4,-7,-18,0
51492105051,3,3,-2,-9,1,-8,-16,-1
51492119976,4,8,13,18,8,10,13,3
51492119976,-1,-5,-5,-5,5,0,1,1
51492131240,0,0,-2,1,-1,1,-1,-7
51492131240,-5,-2,4,13,-2,1,10,8
51492132065,-1,-2,-13,-19,0,2,2,-15
51492132065,-14,-4,-3,-14,-5,-2,-3,-4
51492142368,-10,-1,1,-5,13,3,-5,-5
51492142368,8,1,4,13,-1,-25,-38,3
51492149874,-15,1,-1,11,-6,40,27,3
51492149874,5,-6,-4,-21,-8,2,0,-5
51492164901,-2,0,-2,-14,-4,-6,-1,-2
51492164901,-3,-1,-8,-8,-7,-7,-12,-1
51492172537,3,-2,3,5,-2,-11,-12,-1
51492172537,-6,1,3,-1,9,1,5,2
51492187385,-4,3,6,15,-2,6,7,2
51492187385,-12,-7,-11,-14,-2,-12,-37,-10
51492194915,20,10,6,5,9,16,32,9
51492194915,-16,-9,-15,-14,-7,-9,-2,-3
51492209900,11,1,1,6,-2,-6,-6,-1
51492209900,-14,-2,-1,-11,-4,-8,-4,-9
51492218770,3,-4,-5,1,0,6,25,3
51492218770,7,0,-3,-8,-3,-4,13,2
51492220955,6,3,2,13,7,3,-4,3
51492220955,-6,-1,6,6,3,17,19,3
51492224883,-3,-1,3,6,-15,-18,-25,-2
51492224883,7,-2,-14,-36,-1,3,10,1
51492239866,0,-2,3,14,-10,-7,-7,-1
51492239866,3,2,-6,-10,20,5,16,0
51492247465,-8,-2,-3,-12,-23,-11,-17,-5
51492247465,4,0,1,11,3,1,-3,0
51492262817,4,3,-1,0,-3,5,2,1
51492262817,6,4,2,-1,-1,3,4,9
51492270047,-8,-4,0,-4,7,-23,-33,-10
51492270047,0,0,-10,-18,9,23,21,-5
51492284861,0,-5,11,18,-5,-22,-33,-10
51492284861,-21,-8,-8,3,-7,12,18,-5
51492300594,-3,1,-1,-3,4,-14,-14,1
51492300594,20,11,11,11,7,1,1,8
51492301363,-7,-4,-16,-24,-5,-19,-24,-1
51492301363,-7,-2,7,8,7,16,23,-4
51492308952,9,-2,-1,-3,-2,-2,-17,5
51492308952,-10,-1,0,14,4,3,17,-5
51492322497,-1,1,1,1,-7,6,3,4
51492322497,8,-3,-4,2,-11,-16,0,-8
51492337366,-3,-7,-12,-13,9,9,7,-1
51492337366,2,5,20,23,-16,-13,-21,3
51492345047,-9,-6,-12,-29,1,5,13,-7
51492345047,3,3,-6,-10,-18,-8,-16,1
51492360071,2,-4,-2,2,7,13,34,1
51492360071,-6,-6,0,15,1,-7,-14,-5
51492374919,14,4,1,-4,5,15,14,5
51492374919,2,3,13,12,-4,0,-12,-1
51492391123,4,-2,-9,-12,1,-1,-3,-1
51492391123,8,3,4,1,-4,-7,-7,1
51492391781,-11,-1,2,24,4,3,0,1
51492391781,-1,-3,-12,-39,-5,4,30,0
51492399512,-15,-1,-3,-22,-6,-8,-13,-8
51492399512,7,-4,-6,-20,-6,1,0,1
51492400497,-5,-2,15,36,9,-5,-8,-5
51492400497,7,-1,-4,9,1,-9,-9,1
51492419922,5,3,5,13,0,-4,-1,1
51492419922,-7,-2,-7,-11,3,6,2,0
51492427481,1,-3,-11,-1,-4,-5,-11,0
51492427481,-9,-2,3,11,2,14,6,4
51492442598,6,1,4,0,-4,-10,13,-1
51492442598,-19,-6,1,7,7,15,0,-3
51492450043,-7,-1,0,-1,-3,-8,-18,-1
51492450043,12,1,-6,8,18,18,41,2
51492465156,-6,2,-4,-15,-20,-8,-13,-2
51492465156,8,0,4,6,2,-9,-10,-1
51492473883,-5,-2,-5,-5,-7,5,18,-3
51492473883,6,1,0,2,3,-14,-30,1
51492475340,-5,-4,-1,6,6,6,4,5
51492475340,0,1,1,2,-5,-7,-8,-11
51492480110,2,-1,3,13,4,5,23,1
51492480110,0,-1,-16,-53,-11,-16,-18,-3
51492495077,1,3,19,38,-3,4,2,-1
51492495077,-4,-2,-10,-18,-2,-2,2,5
51492503762,0,-2,-1,9,3,3,1,-2
51492503762,-13,-3,6,7,-8,-2,-24,-8
51492517400,6,0,-1,-8,4,20,49,5
51492517400,6,-1,-7,-10,0,-1,-5,-3
51492524932,-9,-4,-7,-23,-6,-10,-22,0
51492524932,2,3,2,14,5,10,12,-2
51492539889,0,-4,-7,-8,-5,-5,-19,-4
51492539889,-2,-2,4,13,-2,-5,-1,2
51492547540,7,7,-4,-21,-1,0,8,10
51492547540,-3,-1,3,18,1,-7,-8,-11
51492563201,7,-4,-6,-12,-6,-11,-27,-2
51492563201,-16,-6,0,7,3,-3,18,-4
51492563935,7,1,-1,3,0,20,6,5
51492563935,-3,-3,-3,-12,-23,-18,-12,-1
51492571312,-10,-4,-4,4,22,8,5,-6
51492571312,5,-1,4,30,-4,-6,-7,-1
51492577517,3,3,3,-15,5,4,12,3
51492577517,4,-5,-4,2,-3,-2,-2,6
51492599926,2,2,-2,-6,-8,-12,-3,-4
51492599926,-2,3,-5,-12,6,1,-1,-1
51492607309,-34,-8,8,22,-3,-7,-5,-15
51492607309,4,2,0,4,4,11,9,3
51492630065,-1,-1,-1,2,-1,-30,-29,13
51492630065,-6,-2,2,3,-2,13,10,-14
51492637414,2,3,-4,-14,-7,2,11,-2
51492637414,1,-4,0,-1,-1,-7,-19,3
51492647035,-12,-5,-2,5,0,7,17,-2
51492647035,-3,0,-4,-20,-16,-11,-8,-1
51492647877,4,1,0,3,4,-3,-4,-3
51492647877,3,-2,-2,-6,7,6,4,2
51492653944,3,5,8,3,0,6,-2,0
51492653944,2,-6,-4,-5,-12,-8,-4,-1
51492660060,-5,-5,-5,-27,-10,-6,-5,-6
51492660060,-1,0,-2,3,4,-2,1,1
51492682511,-1,0,-3,1,-4,0,-1,-4
51492682511,-3,-1,-3,-10,6,1,-10,-1
51492690019,8,-2,0,-2,-2,-10,-7,4
51492690019,-4,1,-3,1,-4,2,13,4
51492704843,-5,-4,-6,-11,-2,-3,-21,-18
51492704843,0,0,0,21,-2,-2,0,5
51492712568,3,1,3,-2,3,1,0,0
51492712568,-7,-3,-4,-20,-7,-17,-9,-1
51492727396,0,-1,2,22,1,13,39,0
51492727396,6,-2,-5,-13,0,-5,-21,2
51492744578,8,2,-7,-12,-2,4,7,-2
51492744578,-16,-5,1,11,-8,1,0,-8
51492745927,4,1,2,-9,8,1,-9,2
51492745927,4,-1,0,3,-1,-1,-2,-3
51492747074,4,-1,1,5,-2,-3,4,1
51492747074,11,2,6,9,5,5,-10,6
51492757305,-5,-3,-4,-2,-2,14,19,0
51492757305,2,0,-3,-9,2,1,10,9
51492765012,-4,-4,-3,7,-2,-7,-14,-12
51492765012,-2,2,2,1,10,4,-6,-2
51492787335,1,-1,0,-5,-5,-9,-21,2
51492787335,-3,2,5,4,-11,-6,-10,-6
51492795006,-5,-7,-9,-8,7,13,26,5
51492795006,7,-1,2,4,-5,-5,-2,-3
51492819500,1,1,-3,-9,8,5,-3,0
51492819500,14,-1,-5,-10,2,-2,-5,4
51492820201,2,4,20,38,-2,-8,-14,-1
51492820201,-12,-3,-14,-28,2,1,5,-8
51492821889,-15,-6,3,8,-3,-4,-6,1
51492821889,1,0,-1,-6,-6,-3,1,0
51492825643,-6,-4,-11,-19,7,7,4,-5
51492825643,6,3,13,30,0,-3,1,0
51492832496,0,-2,-5,-1,-3,-1,-4,-1
51492832496,-11,-2,-5,-8,-1,0,8,-2
51492847511,4,2,-2,-4,-6,-5,-21,-2
51492847511,-6,0,3,4,2,13,22,3
51492862502,-6,-3,-3,10,-1,-5,-5,-9
51492862502,1,0,0,-12,-1,1,1,-1
51492869925,3,1,-1,-1,2,-2,-5,4
51492869925,-1,-2,-2,5,-3,-1,-6,-4
51492885088,-2,-1,-2,7,-4,0,-7,-4
51492885088,13,0,-4,-14,5,5,16,4
51492892521,-4,0,-1,-4,-3,-5,1,2
51492892521,-18,-9,-3,-10,-3,-5,-5,-9
51492909515,11,4,-5,-15,-16,-15,1,2
51492909515,-18,-8,6,35,19,16,-2,-2
51492910133,7,-2,-8,-12,-9,-4,-2,-5
51492910133,-9,-1,-4,-12,6,3,5,-1
51492911875,5,1,-4,-11,2,2,-8,3
51492911875,-8,1,3,12,4,-10,-20,-4
51492922343,-6,-4,0,-13,-13,13,36,0
51492922343,4,2,-6,-2,-3,-6,-7,2
51492937356,-3,-3,0,-6,1,-4,-3,-5
51492937356,3,-1,-7,5,-2,5,3,1
51492952451,-4,-4,-4,-2,4,1,-2,-1
51492952451,4,3,2,6,-4,-2,-2,2
51492967487,12,-1,-6,-21,-3,-2,1,7
51492967487,2,0,4,10,4,-2,7,-2
51492975046,4,4,1,10,4,-4,-8,1
51492975046,1,-5,1,-9,-5,-3,-2,-2
51492991923,1,3,5,8,1,-1,-1,-1
51492991923,-18,-3,3,15,-2,1,-7,-5
51492992673,-3,-1,1,-1,1,-2,-2,0
51492992673,9,3,-1,-7,0,2,-1,-1
51492994319,-4,-1,2,6,6,5,3,-2
51492994319,5,3,-3,-8,-6,-6,7,10
51493004870,-19,-5,-4,0,0,-5,-15,-12
51493004870,-13,-3,-3,-2,-3,-1,-3,-4
51493027370,-2,0,0,0,-1,-2,-2,-2
51493027370,-5,-1,1,3,-9,-4,0,-3
51493034858,17,4,-6,-29,2,-2,2,9
51493034858,-5,-5,1,51,0,0,-5,-6
51493049865,-5,-1,3,-18,3,4,5,0
51493049865,9,0,-3,-13,-6,-5,-8,-4
51493057425,0,1,4,16,3,-10,-21,1
51493057425,20,8,-3,-12,-2,0,11,20
51493072427,-6,-2,0,1,-2,-8,10,-27
51493072427,-1,2,4,8,5,2,3,-1
51493081322,-7,-5,-3,-5,-5,-6,-11,-3
51493081322,7,2,4,-4,-1,-2,-5,5
51493082920,-2,-2,1,15,0,2,0,6
51493082920,1,-2,-3,-11,-3,-4,-6,-4
51493088727,1,-1,1,11,3,6,9,1
51493088727,4,0,0,-5,1,-3,2,-3
51493090315,-13,-7,-3,1,-1,-6,-27,-4
51493090315,-9,-2,-5,6,3,15,29,-4
51493102297,1,-2,0,-25,-20,1,8,3
51493102297,-6,-3,5,20,9,-2,1,-6
51493117337,1,-3,-3,-7,-7,-7,-12,1
51493117337,3,0,2,1,6,1,-7,2
51493124932,-8,-2,5,27,3,1,1,-3
51493124932,2,-4,-13,-44,-13,-3,-3,-3
51493140002,9,3,1,-1,1,2,8,7
51493140002,0,-1,-10,-11,-8,-7,-14,-2
51493147406,2,2,4,8,8,4,18,11
51493147406,4,-6,-2,-3,0,-9,-18,-19
51493164528,3,0,3,16,1,1,-5,4
51493164528,-2,1,-4,-18,-5,-3,-2,-1
51493165370,-2,-2,-2,2,6,1,-5,-4
51493165370,-7,-3,1,5,3,4,5,4
51493171378,17,4,-1,-11,1,6,4,5
51493171378,-5,0,0,13,2,-10,-1,-2
51493185064,-17,-8,-9,-22,-8,-6,-8,-10
51493185064,-4,3,3,-1,4,-3,-3,2
51493199896,4,0,-2,8,1,9,9,-2
51493199896,-3,-5,-4,-4,-7,-12,-10,-2
51493207527,6,3,3,13,4,2,0,2
51493207527,8,2,-5,-18,-8,-2,2,2
51493229842,-8,-9,-12,-11,-4,-6,-9,-1
51493229842,1,0,11,19,5,3,-1,-3
51493237416,-4,-3,-4,-4,-4,-3,-1,-3
51493237416,-1,1,2,-2,-2,2,4,-1
51493254554,-4,0,-5,-13,-5,2,9,7
51493254554,-5,-6,0,4,-1,-8,-12,-7
51493255112,6,1,-2,-2,-6,3,6,-1
51493255112,-5,-5,-9,1,-2,-7,-8,-5
51493256790,-1,2,1,4,-1,-4,2,3
51493256790,32,5,3,-6,-5,7,9,15
51493267449,-16,-4,4,14,2,-1,-13,-14
51493267449,-1,-2,-3,-8,-4,-2,0,2
51493282476,-7,-1,0,0,0,-8,-11,-4
51493282476,7,5,0,-17,-5,3,0,1
51493290006,6,2,2,11,2,-1,0,2
51493290006,0,0,0,-8,0,1,3,1
51493304982,-5,-8,-11,7,6,1,7,-5
51493304982,-11,-3,2,2,1,-4,-5,-5
51493312521,1,1,2,4,3,4,10,5
51493312521,-8,0,1,2,-4,-1,-24,-10
51493327474,-1,1,2,1,-6,-15,10,3
51493327474,-7,-6,-12,-18,-3,4,-1,-5
51493336258,-8,-3,-3,-7,-2,0,2,-4
51493336258,6,2,3,18,-2,1,5,4
51493337765,1,-1,1,0,-7,2,-3,1
51493337765,-8,-4,-5,-1,7,4,3,-6
51493342592,9,2,3,3,-3,-5,-4,2
51493342592,1,-1,-3,-7,-4,-4,0,-3
51493357483,-1,0,2,1,3,8,2,-2
51493357483,-9,-6,-6,-11,-5,-4,-3,0
51493364976,-2,-4,-3,1,-1,-5,-21,-4
51493364976,-1,-1,-2,-2,5,19,50,5
51493379930,4,4,0,5,-5,-2,-6,2
51493379930,-13,-4,-2,-5,1,-3,-4,-2
51493387438,-5,-3,-6,-16,-2,-2,2,-2
51493387438,-4,-1,5,10,-4,-7,-5,1
51493402342,-2,-1,7,13,11,2,-10,-6
51493402342,-5,-2,-3,6,-4,0,24,1
51493409815,3,-1,-5,-11,-1,-2,-3,2
51493409815,3,1,6,2,1,-4,-9,3
51493426349,-14,-4,-5,-8,-3,-1,-7,-6
51493426349,13,3,4,-2,-4,-5,-8,-3
51493427032,0,0,-1,6,-3,-1,2,0
51493427032,-2,-2,-4,-5,1,1,-1,-4
51493432478,6,0,-2,-6,-4,0,1,2
51493432478,-4,-1,1,0,-3,0,-2,1
51493447358,-1,-2,-3,3,1,0,3,-1
51493447358,-2,0,-2,-5,-5,-3,-5,1
51493462505,-1,0,-3,2,1,3,2,-2
51493462505,-3,0,0,-6,-2,-3,-8,-3
51493469985,6,1,2,8,2,-6,-13,-1
51493469985,-4,-5,-9,-25,-2,3,26,-2
51493484830,-5,0,5,7,-2,-3,2,-2
51493484830,-3,0,-1,3,4,3,-2,-1
51493492502,3,-1,-4,-7,-3,3,6,3
51493492502,-1,-2,-2,5,1,-7,-15,1
51493510741,16,3,2,-6,-2,-1,-10,2
51493510741,-23,-4,-4,2,1,4,26,-5
51493512431,-1,3,4,-4,-3,-7,-4,-3
51493512431,-4,-1,-3,5,1,-3,-14,-4
51493516449,0,-3,-1,-4,-2,-1,5,2
51493516449,6,0,1,14,0,0,-14,1
51493522382,0,-1,2,-8,2,4,6,1
51493522382,-1,-2,-10,-22,-3,-2,-4,-2
51493537407,1,-1,4,12,-3,1,4,1
51493537407,3,-1,-4,-8,0,-2,-8,-2
51493545037,-3,-1,5,16,2,3,9,8
51493545037,10,1,3,5,-2,-1,-15,-4
51493559961,-7,-2,-3,-8,-2,-1,-1,-5
51493559961,-1,-1,-3,-3,1,-2,-3,-2
51493567532,5,-1,-2,-3,-1,1,5,2
51493567532,-2,-3,2,3,-3,-5,-5,0
51493582513,-5,-4,-7,0,-5,-1,-3,-6
51493582513,3,0,-3,-12,-4,-9,5,3
51493589982,7,5,2,0,-3,1,0,1
51493589982,-5,-5,-7,5,1,2,-6,-8
51493598859,-3,-1,1,-7,2,0,-2,-3
51493598859,3,1,0,3,-1,0,2,3
51493605496,-3,-2,-2,-1,-2,-3,-9,-4
51493605496,1,-1,-2,-3,-1,0,6,0
