timestamp,emg1,emg2,emg3,emg4,emg5,emg6,emg7,emg8
51267807131,-9,-3,2,5,2,-4,-3,-4
51267807131,-3,1,0,-3,-2,-4,-4,-4
51267807858,0,1,-3,0,-1,1,-2,0
51267807858,4,-2,3,7,1,-1,1,2
51267808676,-5,-7,-8,-1,0,-1,0,-1
51267808676,-3,-4,-2,-9,-8,-3,-2,0
51267812611,0,2,3,8,2,0,-1,-1
51267812611,-1,0,-4,-6,-1,-2,-1,-1
51267819603,4,2,6,10,6,1,0,0
51267819603,-1,0,0,4,-1,-2,-1,-3
51267834658,2,0,4,8,1,-3,0,2
51267834658,1,1,0,-15,-4,0,-3,0
51267841891,-3,1,-3,-7,0,1,-1,-3
51267841891,0,1,1,-4,0,1,1,2
51267856959,1,-4,-3,6,0,-5,-3,8
51267856959,-16,-4,-1,-2,-5,-2,-3,-19
51267864379,-2,2,1,1,0,-2,-4,-1
51267864379,-2,-6,-11,-8,1,5,7,2
51267879455,-7,0,-1,9,0,2,-1,-5
51267879455,3,-5,-1,-3,-2,-3,-2,5
51267888701,4,7,4,-3,-4,-3,-1,-2
51267888701,0,-3,0,-1,0,-2,0,-1
51267892495,-6,-2,-1,10,3,1,2,-4
51267892495,4,3,-2,-17,-4,-2,-2,0
51267894719,6,1,-1,4,-1,-2,1,3
51267894719,-5,-4,-8,-3,0,0,-4,-2
51267946701,1,2,3,5,0,0,1,0
51267946701,2,1,1,6,4,1,1,1
51267954247,0,-2,-6,2,-1,0,0,3
51267954247,-3,-4,-1,-9,1,-2,-1,2
51267961750,-4,1,2,-3,0,0,-2,-6
51267961750,0,-5,-4,13,1,-1,-1,0
51267969251,2,1,1,-26,-3,1,1,0
51267969251,-1,-5,-4,-2,-3,-1,-1,1
51267980218,-2,-1,-2,-7,-5,-6,-2,-2
51267980218,-4,-2,-4,0,-3,-4,-2,-3
51267981064,3,4,7,11,0,-2,-1,0
51267981064,-3,0,-2,-1,-1,0,0,-4
51267985627,-4,-3,-4,-3,-1,0,-2,-1
51267985627,4,3,-2,-8,-2,1,-1,0
51267986370,4,-5,-2,2,-2,1,0,1
51267986370,-5,-3,1,-1,-3,-3,-2,-4
51267991748,2,-1,-3,5,2,0,0,2
51267991748,4,3,4,2,3,0,1,-1
51267999255,-11,-9,-10,-4,0,-1,-5,-4
51267999255,8,1,1,1,-2,0,1,3
51268014197,-5,0,0,6,4,1,0,-3
51268014197,-11,-7,-8,-20,-6,-3,-2,-3
51268021708,0,1,8,16,-1,-2,-2,-1
51268021708,6,3,0,-3,4,0,-2,-2
51268036887,0,1,1,-1,-1,2,7,6
51268036887,8,-1,-1,-2,0,3,3,4
51268044226,0,0,-6,-19,-9,-2,-1,-2
51268044226,-9,-4,-4,16,4,-1,-1,0
51268059892,-1,2,1,-2,1,1,3,-3
51268059892,2,1,2,-1,-7,-1,-12,-1
51268060645,5,1,-2,-1,3,-1,2,7
51268060645,-1,2,4,4,-5,-4,-3,-6
51268074245,-7,-5,-3,-13,-4,-4,-4,-3
51268074245,-3,-2,-1,0,-1,-5,2,-1
51268081720,-5,-1,-2,9,3,0,-4,-4
51268081720,5,2,-1,-23,-6,1,0,2
51268096764,9,1,2,1,3,0,-1,-2
51268096764,-10,-3,3,25,9,1,-4,-6
51268104280,10,3,-2,-17,-18,-6,5,3
51268104280,-9,-1,1,15,7,-1,0,-2
51268119289,4,-2,-5,8,-4,-1,0,1
51268119289,1,0,0,-16,-7,-3,-4,1
51268126752,0,-1,0,-13,10,2,-1,-3
51268126752,-5,-2,1,12,-9,2,-2,2
51268141789,6,-2,-4,-1,9,4,16,1
51268141789,-14,-1,1,-7,3,-7,-18,-9
51268150631,-10,-2,-1,13,3,1,1,2
51268150631,-4,-3,-4,-11,-17,-27,-80,-14
51268152214,20,2,0,0,5,30,80,16
51268152214,-15,-2,-3,4,13,5,2,-6
51268164386,-1,0,1,1,-7,3,-2,-3
51268164386,4,-2,-6,-11,4,4,9,4
51268186748,0,-2,0,5,-2,-12,-32,-5
51268186748,5,-4,-4,-2,0,1,6,1
51268194358,0,0,1,-2,2,-18,-18,-1
51268194358,-2,1,1,4,-1,9,34,-2
51268209225,-6,-2,-3,12,8,-10,-25,-4
51268209225,6,1,-4,-34,-15,0,11,3
51268216786,-6,-1,5,26,16,-1,-7,-2
51268216786,4,-2,-3,-6,1,4,10,1
51268233940,-8,-6,-4,-19,-26,-16,-12,-5
51268233940,2,-1,-1,9,20,6,-7,-1
51268234555,5,0,0,6,-11,3,6,0
51268234555,9,-3,-13,-19,4,2,4,4
51268236141,-12,0,8,15,-22,-16,-12,-9
51268236141,11,4,2,4,-9,-4,-3,3
51268239327,-8,-4,-4,-5,9,10,3,-5
51268239327,11,0,2,10,1,7,9,8
51268254219,-14,0,-4,-17,-5,-7,-22,-9
51268254219,-5,1,0,-3,-5,-17,-17,-5
51268261757,-9,-5,-3,7,3,20,33,-2
51268261757,2,5,-3,-8,-4,3,1,7
51268276745,4,-7,-8,-8,4,-12,-9,-6
51268276745,-14,-2,2,10,-3,-3,-4,-3
51268291734,2,-2,-2,-11,-6,-8,-12,-5
51268291734,-4,0,3,11,12,-1,5,-1
51268306885,1,1,2,8,-9,2,-12,0
51268306885,7,-2,0,34,24,14,8,1
51268314293,2,-5,-16,-73,-37,-18,-4,-2
51268314293,-5,-2,4,7,-8,5,2,-3
51268324569,6,0,6,9,19,7,-2,5
51268324569,3,-3,-1,-3,13,6,6,0
51268325602,0,4,13,19,-5,-2,-3,-1
51268325602,-8,-12,-29,-11,-4,-9,-10,-8
51268329248,-1,-1,-6,-26,-4,3,1,0
51268329248,2,0,-1,3,-5,-1,5,3
51268344417,-2,1,2,20,27,4,-9,-3
51268344417,-1,3,6,-9,-15,-4,2,-4
51268359283,-1,2,6,37,12,4,2,-1
51268359283,2,0,-3,-22,-16,-4,2,2
51268366885,-2,0,-1,7,9,-3,-6,-3
51268366885,-2,0,3,-6,5,0,-1,-3
51268381865,3,0,0,-3,4,4,3,2
51268381865,-2,1,2,-1,-8,-2,-4,-5
51268389270,-2,-2,0,7,-8,-1,-1,1
51268389270,-1,0,0,2,5,-1,0,-1
51268405583,-2,1,-2,-12,-6,-2,-1,3
51268405583,0,1,0,-5,5,-2,2,0
51268406471,-1,1,-6,-5,-10,-3,-2,0
51268406471,-1,3,5,1,-2,0,4,-2
51268411998,-5,-9,-5,7,6,-1,-12,-4
51268411998,-1,-2,-3,-6,-8,2,6,0
51268419322,0,-2,-3,-2,1,0,0,-1
51268419322,1,1,6,5,0,-1,1,2
51268434404,0,2,1,-12,-11,0,2,0
51268434404,1,-2,-3,-6,-6,0,-3,2
51268441900,-4,-1,0,-1,-1,-3,-2,-2
51268441900,0,-3,0,4,10,1,1,-2
51268464221,0,1,-1,-4,-17,-7,-3,-3
51268464221,-1,-1,-2,-4,-13,-7,-2,0
51268471753,1,3,1,0,3,3,4,1
51268471753,-4,-2,-1,0,1,-7,-7,-2
51268486867,-4,-1,-5,0,3,3,-3,-1
51268486867,-2,-2,-1,-6,-4,-6,1,-1
51268495787,0,-3,-3,-1,2,2,1,-1
51268495787,-2,0,3,-2,5,2,1,-2
51268497207,0,-2,-2,-6,-16,-3,-2,-2
51268497207,-3,-1,1,12,4,1,-1,0
51268502395,0,0,-1,-2,1,-1,-4,-2
51268502395,-2,1,-2,-2,-6,-5,-3,-3
51268509209,-2,-2,-1,-3,6,1,5,2
51268509209,-1,1,2,-2,-5,2,-2,-5
51268524449,-1,-1,2,0,-3,-5,-1,0
51268524449,-2,-1,1,-2,-1,1,3,1
51268539442,0,0,-2,1,3,-3,-9,-2
51268539442,-1,-3,-4,-8,-13,0,6,0
51268546769,0,-2,-2,5,8,4,-2,0
51268546769,-2,-1,0,2,10,2,-1,-1
51268561922,3,-2,0,-4,-19,-3,4,2
51268561922,-7,1,-1,-1,-1,-3,-6,-3
51268569278,0,-3,-1,-5,-6,-4,0,-6
51268569278,-1,-3,-3,1,-6,-1,-1,-1
51268578236,-1,-1,-1,-7,16,5,3,-1
51268578236,3,1,-4,-4,-19,1,-4,0
51268585004,-2,0,-2,-5,-8,-3,1,-1
51268585004,0,1,-1,-2,-2,-1,-3,-2
51268591891,1,3,-2,0,4,3,-1,0
51268591891,2,-2,3,1,1,-4,-1,0
51268606750,-1,0,-1,1,6,-2,-2,-2
51268606750,1,-1,0,-2,-6,-4,-3,-2
51268621712,0,-2,-2,-3,0,0,-2,-3
51268621712,-2,-6,-5,-2,0,-1,-1,-3
51268629412,0,-1,-2,2,1,0,2,3
51268629412,-3,-1,-1,-3,-2,-1,-6,-1
51268644252,-3,1,0,2,4,0,0,-2
51268644252,-2,-3,-3,-2,-8,-3,-3,-1
51268652034,1,0,0,-6,0,0,-2,-2
51268652034,0,-1,-1,1,13,1,1,0
51268668610,-1,0,0,-2,-20,-5,1,0
51268668610,2,2,1,3,8,1,0,-1
51268670113,-2,-2,-3,-1,-5,-1,-3,2
51268670113,0,0,0,1,-2,0,0,0
51268674182,1,-2,-1,1,-10,-6,-3,-2
51268674182,-1,0,-3,-4,12,4,0,0
51268689154,-1,-1,0,2,-4,-6,-4,-2
51268689154,-2,0,0,0,-3,-2,-1,-1
51268696960,-2,-2,-1,-2,9,-2,0,-1
51268696960,-2,-2,-3,0,0,1,2,-1
51268711916,-3,-1,-2,3,1,2,1,0
51268711916,-2,-4,-3,-4,-9,-4,-2,-3
51268719217,0,0,2,5,6,0,-1,-1
51268719217,0,1,1,-2,0,-4,-1,0
51268741681,0,-2,-4,-3,3,-2,-2,-1
51268741681,-1,-3,-2,0,-5,-2,0,-2
51268751377,-3,-3,1,-4,2,1,-1,0
51268751377,0,-2,0,0,1,-2,-2,-2
51268752843,2,0,-1,1,6,5,0,-2
51268752843,-3,-1,2,1,6,-2,-2,-3
51268753595,-4,-3,-3,0,12,0,1,-1
51268753595,-3,-3,-1,-2,-8,-2,-2,-4
51268771705,-3,-1,1,4,-3,1,-2,-1
51268771705,2,-2,-3,-9,0,4,3,0
51268779340,-3,-3,-2,1,6,0,0,-1
51268779340,-1,-1,1,1,2,-3,-3,-2
51268794181,-1,-3,0,-2,-1,-2,-1,0
51268794181,-2,-1,-1,-1,-5,-3,-2,0
51268801660,-1,-1,-2,-5,-7,0,0,-1
51268801660,0,0,0,1,0,0,-1,-2
51268816668,-2,-1,-3,-2,-7,-3,-1,-2
51268816668,-2,0,-1,0,-3,-1,1,-1
51268824320,0,-5,-4,-4,-4,1,-1,-1
51268824320,-2,0,2,1,16,-3,0,1
51268839916,0,0,-1,-3,-20,-4,0,-1
51268839916,1,-1,1,1,1,-1,-1,-1
51268840623,-1,-2,-2,1,1,-1,1,-1
51268840623,0,-2,-1,-2,-5,-1,-3,-2
51268848184,0,-1,-2,-1,2,0,-1,-1
51268848184,1,-1,-4,-2,-7,-3,-2,0
51268854176,0,3,1,-2,0,0,-1,-1
51268854176,1,-1,-1,-1,-9,-3,-4,-1
51268869114,0,0,-1,2,6,-3,0,-1
51268869114,-1,1,-2,1,0,2,1,0
51268876653,0,1,-1,-2,-2,-2,-1,-1
51268876653,-2,-1,-3,-1,2,2,1,-3
51268891665,0,-3,-2,-2,2,-3,-3,-1
51268891665,-1,-3,0,3,4,-1,-1,-2
51268899167,-2,-2,0,2,-1,-2,-2,-2
51268899167,0,2,0,-2,-6,-3,-2,0
51268914150,-3,0,1,-1,-6,-2,-2,-2
51268914150,-3,0,-1,-2,-1,0,-1,-1
51268922389,0,0,0,-1,-2,-1,-1,-1
51268922389,1,0,1,1,-3,1,0,0
51268929244,-1,-2,-2,-2,0,-1,-2,-1
51268929244,1,0,-1,-2,3,0,-1,-1
51268936688,-3,0,-1,-3,-25,-3,0,-3
51268936688,-2,-1,-3,-2,-9,-5,-2,0
51268951743,-1,-3,-3,-2,-1,3,1,1
51268951743,-1,-1,-1,-1,-4,-3,-1,1
51268959366,-1,-1,0,2,12,-1,0,2
51268959366,-2,-1,-2,-1,3,2,0,-1
51268974288,-1,0,0,-2,-5,-1,-1,-2
51268974288,-1,-2,-1,-3,-6,-2,-1,-2
51268981678,2,-1,-1,-2,2,0,-1,-4
51268981678,0,0,0,0,6,2,2,0
51268996758,-1,0,0,-1,2,-1,-2,-3
51268996758,-1,-3,-2,0,-7,-5,-1,-2
51269004312,0,-3,-2,-1,-3,-4,-2,-1
51269004312,-1,-2,-2,-1,2,0,-1,-1
51269019873,0,0,-2,-2,0,-2,0,1
51269019873,-1,-1,0,-4,-8,0,-2,-1
51269020772,0,-1,0,1,9,4,-1,-2
51269020772,0,-2,-1,0,-1,0,0,-2
51269034214,0,-1,1,0,4,3,-1,0
51269034214,1,0,-1,0,0,-1,0,0
51269041782,-2,-1,-1,-1,4,0,-1,0
51269041782,-2,-1,-2,-4,-3,-2,0,-1
51269056700,0,-2,1,1,11,2,0,-1
51269056700,-2,-1,0,-1,-3,-2,0,-1
51269064303,0,0,0,-2,-2,-1,0,1
51269064303,0,-1,-2,-1,-9,-6,-3,-2
51269079446,0,-2,-2,-2,-3,-4,-2,-1
51269079446,0,-1,-2,-2,0,1,-1,-3
51269086681,1,-1,-1,-1,-2,0,-1,-1
51269086681,2,-1,0,0,3,1,-1,-1
51269096414,0,-1,-2,-3,-2,-1,-1,-1
51269096414,-2,-1,-2,0,12,-2,-3,0
51269097353,-1,0,-2,-2,-13,-4,-3,0
51269097353,0,-1,2,-3,-2,-1,-1,-3
51269109208,-1,-1,0,0,0,0,0,-1
51269109208,0,-2,-1,2,1,0,0,-2
51269116922,-3,-3,-2,0,3,-1,-1,-4
51269116922,-2,-1,0,-1,-4,-2,-2,-1
51269131696,-1,0,0,-1,-1,-2,0,0
51269131696,-1,0,0,-1,-2,-1,-1,-2
51269139174,-1,-1,-2,0,5,1,-1,1
51269139174,-1,-1,-2,-1,-11,-2,-1,-1
51269154357,-1,-1,-2,-1,-3,1,0,-1
51269154357,1,-1,-3,0,-4,0,-1,1
51269161915,0,-2,-3,-2,0,-3,-2,-1
51269161915,1,-1,-2,-1,4,0,0,-1
51269176873,-1,0,0,-1,-1,-1,-1,-1
51269176873,-1,-3,-1,-2,-5,-2,-1,-2
51269184993,0,1,0,1,-10,-1,-1,-3
51269184993,-2,-1,-2,-1,4,-1,-2,-2
51269192394,0,0,-1,2,5,1,-1,1
51269192394,-1,-2,-1,-1,-4,-1,0,1
51269193121,-3,0,-1,-1,1,-2,1,1
51269193121,-1,-1,-2,-3,1,-2,-1,-1
51269214274,-2,0,0,-2,-4,-3,-4,-2
51269214274,0,0,0,1,11,-1,-1,-2
51269221686,-3,-3,0,-3,-2,-3,-1,-2
51269221686,-1,-1,-1,1,-3,0,-2,-1
51269236719,-1,-4,-1,-4,-4,-4,-2,-2
51269236719,0,-3,-1,-3,2,0,-1,-1
51269244228,0,0,-1,1,0,-1,-1,-1
51269244228,-2,1,-2,1,-4,0,0,1
51269259213,-1,-2,-2,1,1,1,-1,-1
51269259213,-1,-1,-1,-2,-9,-2,1,0
51269268058,2,-2,-1,-2,9,2,1,-2
51269268058,0,-1,-2,0,2,2,0,0
51269269663,0,0,-1,-2,-5,-6,-3,-1
51269269663,-3,-1,-1,1,-1,2,-1,0
51269274346,-2,0,-2,0,6,0,-1,0
51269274346,-3,-3,0,1,7,2,1,-1
51269296875,-2,0,-1,-5,-10,-1,-1,-1
51269296875,-1,-1,-2,-2,-1,-1,-3,-3
51269304191,-2,0,1,-2,-5,0,0,-1
51269304191,-2,0,0,-1,-6,0,0,-2
51269319435,0,-2,-1,1,-1,-2,-1,-2
51269319435,-1,2,-2,-4,-6,-4,-1,0
51269326831,2,-1,0,-1,-5,-2,0,0
51269326831,2,1,1,0,15,4,0,0
51269341878,-2,0,-1,0,0,-5,0,-1
51269341878,-1,-3,-1,2,1,0,0,-2
51269349201,-1,-3,-2,1,-5,-3,0,-1
51269349201,0,-2,0,-1,1,-2,-1,-2
51269358870,1,-3,1,0,2,2,-1,1
51269358870,-2,-2,0,-2,-4,-1,-1,1
51269359647,0,-2,0,-1,-1,-2,-1,-1
51269359647,-1,-2,-1,-1,5,0,-1,-1
51269371684,-3,-2,-3,-2,-4,-3,-3,-2
51269371684,-1,0,-1,1,-1,-1,1,0
51269379458,-2,-2,-3,-2,-1,-2,-2,-1
51269379458,-2,-1,0,0,1,-1,-1,0
51269394246,-1,0,1,0,1,2,1,1
51269394246,2,1,-2,0,7,-1,0,-1
51269401846,-2,-3,-2,-3,7,0,-2,1
51269401846,0,-1,-3,-1,-9,-3,-2,0
51269416910,0,-1,-1,-3,-1,0,-1,-2
51269416910,-2,-1,-2,-1,-3,1,-1,-2
51269424400,0,0,0,1,5,4,-1,0
51269424400,-3,-1,0,-2,-15,-6,-1,-3
51269440689,-1,-1,-1,2,-1,0,-2,-2
51269440689,0,-1,-1,-3,5,1,1,0
51269441342,-2,0,-1,-1,-2,-3,0,-2
51269441342,-2,-1,-2,-1,1,-2,-2,-2
51269446733,-2,0,0,0,2,-1,0,1
51269446733,-2,-2,-2,0,-3,-1,-2,-2
51269454225,-1,-1,-1,-1,7,-2,-2,-1
51269454225,1,-1,-2,-3,-10,0,1,0
51269469148,-2,1,-4,-1,-9,-2,-2,-2
51269469148,0,-2,0,-3,-1,2,-1,1
51269476838,-1,0,-1,0,0,2,0,0
51269476838,-1,2,0,-1,-2,-2,-2,-1
51269491835,-2,-4,1,-1,1,-1,0,0
51269491835,-1,-2,-2,-2,-3,-3,-3,-2
51269499361,0,-3,0,-1,-9,-4,0,-2
51269499361,-3,-2,0,0,9,1,-1,-2
51269514195,0,-1,0,-3,-3,-3,0,0
51269514195,-2,-2,0,-1,-2,-1,0,-1
51269521681,0,1,-1,-2,-4,-2,0,1
51269521681,-2,-1,-1,-4,1,-1,-1,-1
51269530747,-1,0,-1,1,5,2,1,1
51269530747,-1,-1,-2,-2,-4,-1,-2,1
51269536785,-1,-2,-1,-1,-7,-1,-2,-1
51269536785,-1,-3,-2,-2,-4,-3,0,-2
51269551699,-2,-2,-2,-1,-2,0,0,-1
51269551699,2,-1,0,0,-3,-1,-1,-1
51269559194,0,-2,-2,0,-4,0,-1,0
51269559194,0,-2,0,-1,8,2,-1,0
51269574156,-3,-2,-1,-1,-3,-1,0,-1
51269574156,0,1,-1,1,14,0,-1,0
51269581669,-1,0,-1,-2,-13,-4,-4,-1
51269581669,-1,-1,-1,-2,-3,-2,0,0
51269596678,-3,-2,-2,1,4,2,0,-1
51269596678,-2,-2,-2,-1,-3,1,0,-2
51269604474,-2,-2,-1,-2,2,0,-1,-2
51269604474,0,0,-2,-2,-6,-1,0,-2
51269613866,0,-3,-3,0,-2,-5,-4,-4
51269613866,-2,-2,-1,-1,-6,-4,1,-1
51269614859,-2,-1,2,0,5,0,0,-1
51269614859,-1,-1,-2,-1,-5,-5,-3,0
51269626690,1,0,1,-1,4,1,0,-2
51269626690,-1,-1,-1,-2,-16,-5,0,-1
51269634211,-1,-2,-1,1,2,-1,-1,-2
51269634211,-1,1,0,1,2,3,1,-1
51269649213,-2,-2,-1,-2,0,-3,-4,-1
51269649213,-1,0,-1,-3,2,0,-2,-1
51269656599,-2,-1,0,0,0,3,-1,-1
51269656599,0,-2,-2,1,-3,-3,-1,-1
51269671839,1,0,-2,0,0,0,2,-1
51269671839,0,-2,-2,0,6,-4,-1,-1
51269679177,2,0,-1,-4,-3,-3,0,1
51269679177,0,0,0,-2,3,-1,-1,0
51269694197,0,0,1,0,-3,2,0,1
51269694197,0,0,-1,1,4,-1,-2,0
51269702392,-2,-1,-2,-2,-3,-1,-1,-2
51269702392,-1,-2,-2,-3,-3,-1,-1,0
51269709320,-1,-1,0,-2,1,-2,-2,-1
51269709320,-1,-2,-2,0,-3,1,-1,0
51269716813,-1,-2,-1,-2,2,-1,0,0
51269716813,-3,-1,-1,-3,-2,-1,0,-4
51269731720,0,-3,-3,-2,2,2,-1,-1
51269731720,-1,0,0,-2,-4,-4,-4,-3
51269739403,1,1,0,1,1,-1,0,-1
51269739403,-1,-1,1,-1,1,-1,0,0
51269754304,-1,0,-2,0,-5,0,0,1
51269754304,-2,-2,-1,-2,-1,0,1,-1
51269761867,-2,-1,-3,-1,-4,0,-1,-3
51269761867,-1,-1,-2,0,2,0,-3,0
51269776805,-2,-2,0,-1,1,0,0,0
51269776805,-1,-1,-1,-1,-5,0,-1,0
51269785102,-2,0,1,-2,1,-3,-4,-2
51269785102,-1,-2,-2,-1,-7,0,1,0
51269791824,0,0,-3,-1,1,-2,-2,0
51269791824,-3,-3,2,-1,1,-3,-2,-2
51269799214,-3,-1,-3,-1,-3,-3,0,-2
51269799214,-1,-2,0,4,11,2,-3,-2
51269814154,0,0,0,-4,-14,-5,-2,-1
51269814154,-1,0,-3,-3,-5,0,-1,-2
51269821664,-1,-4,-2,-3,-3,-2,-3,-1
51269821664,0,-1,-1,0,0,-3,-2,-1
51269836759,-2,0,-2,1,2,-1,0,-2
51269836759,0,0,0,1,-1,2,1,-1
51269851787,0,0,-1,0,1,1,0,0
51269851787,-2,-3,-1,-3,-9,-2,-1,-1
51269866668,-1,-1,-1,-2,2,0,0,-1
51269866668,-2,-1,0,-1,-1,-6,-2,-1
51269876199,1,-1,-1,1,1,4,0,0
51269876199,1,0,-1,0,-4,-1,-1,-1
51269877741,-1,1,-1,-2,-1,0,-2,-3
51269877741,-1,-2,-1,0,13,1,0,0
51269878579,-2,0,-1,0,-7,-3,-1,-1
51269878579,-1,-1,0,-1,-3,0,0,-2
51269889147,-2,0,0,-2,1,-1,-1,-1
51269889147,-1,-1,-3,-1,9,2,-2,-1
51269896708,-1,-1,-2,-4,-17,-2,-1,-3
51269896708,2,0,-2,-4,-10,-3,-2,0
51269911842,-1,-2,0,0,1,-1,-1,-1
51269911842,-1,-1,0,-2,-2,-2,0,-2
51269919265,-1,0,0,1,3,-1,0,-1
51269919265,0,-1,-2,-1,0,0,-1,0
51269934333,0,-2,-2,-1,-3,0,-1,-1
51269934333,-1,0,0,-1,-7,-2,-1,-1
51269941865,-2,-2,1,2,2,-1,0,0
51269941865,-2,-1,0,-1,-2,-1,0,-1
51269957371,-1,-1,1,2,3,2,1,1
51269957371,-1,-1,-2,-2,-12,-3,1,-1
51269958162,0,-2,-3,-2,6,-2,-3,-1
51269958162,-1,-2,-1,-1,-1,-2,0,-1
51269971628,0,0,0,-1,-4,-3,-2,-2
51269971628,-1,1,1,-1,0,0,-3,0
51269979097,-1,-1,0,-1,-1,-1,-1,0
51269979097,-2,1,-2,0,-2,-1,-2,0
51269994258,-1,-1,-2,-1,1,0,-1,-2
51269994258,-1,-1,-1,-2,-4,-2,2,-1
51270001678,0,0,1,-2,1,0,1,-2
51270001678,1,-1,-1,1,12,2,0,-2
51270016644,-2,0,-2,-2,-21,-7,-2,-1
51270016644,0,-1,-3,0,2,-1,-2,-1
51270024172,0,-1,-1,-1,-2,-1,0,-1
51270024172,0,-1,0,-1,2,-2,-2,0
51270039113,0,-1,-1,-1,3,2,0,1
51270039113,-3,-3,-2,-2,-2,-1,-1,-1
51270047377,-2,-1,-2,-1,1,-1,-2,-2
51270047377,-2,0,-2,-1,-3,-1,-2,-2
51270054831,0,0,-2,1,0,-5,-1,-2
51270054831,-1,-2,-1,-2,-1,3,-1,-3
51270055609,-1,-1,0,-1,8,1,0,0
51270055609,-3,-1,0,-2,-11,-1,0,-2
51270069163,1,1,-1,-3,-8,-5,0,0
51270069163,0,-2,-1,0,1,0,0,0
51270076597,-1,-2,-3,-2,-3,-2,-1,-1
51270076597,-1,-1,-3,1,2,1,2,1
51270091600,-3,-1,-1,-2,2,-1,-4,-1
51270091600,-1,0,0,0,0,1,-2,-1
51270099162,0,0,-1,-2,-2,-1,-1,0
51270099162,-2,-2,0,-2,-2,-3,-2,-2
51270114114,0,-3,-2,0,10,5,1,-2
51270114114,1,-2,1,2,-3,0,-1,0
51270122224,-1,-1,-2,-4,-7,-4,-3,0
51270122224,0,-1,-2,1,3,0,0,-1
51270130638,-2,-1,-2,-1,3,1,-1,-2
51270130638,-1,1,-2,-1,-12,-4,-1,-2
51270136731,0,-1,-2,-2,-2,-2,0,0
51270136731,-1,-3,-1,-1,9,0,1,-1
51270151628,-1,-1,1,-1,-3,-2,-1,-1
51270151628,-1,-4,-2,0,3,-1,0,0
51270159104,-1,0,-1,0,-2,-1,-1,-1
51270159104,-1,-4,-1,-1,0,-2,0,0
51270174118,-1,-2,0,2,11,2,1,0
51270174118,0,-1,-2,-6,-15,-3,0,-3
51270181627,-1,-1,0,0,-1,-2,-1,-2
51270181627,-2,0,0,-1,-4,1,-3,-2
51270196603,-1,2,0,-2,2,1,-1,0
51270196603,-2,0,-2,-1,2,0,-1,0
51270204144,0,-1,-1,0,0,-3,1,-2
51270204144,2,1,0,-1,-5,-1,-1,0
51270220558,-2,-3,-2,-2,-8,-3,-1,0
51270220558,-2,-1,-1,-2,2,-1,-1,1
51270221329,-1,0,0,0,-1,0,-2,-2
51270221329,2,-1,-2,-1,2,0,-1,-2
51270234208,-1,0,-1,1,10,2,1,0
51270234208,-1,1,0,-2,-1,-2,0,-2
51270241638,0,0,-2,-2,1,1,-1,1
51270241638,0,-1,-1,-1,-9,-2,0,-1
51270256680,0,-1,-2,0,15,1,0,-2
51270256680,-1,0,-1,-2,-11,-3,-1,1
51270264162,-2,-3,-1,-2,-5,-2,-2,-2
51270264162,-2,1,-2,-1,3,0,-2,-1
51270279163,-2,-1,-3,-2,-11,-6,-1,0
51270279163,-2,-3,1,1,5,2,-1,0
51270286675,-2,-2,-1,-3,-3,0,-3,-2
51270286675,-1,-2,-1,-2,-3,-2,-3,-2
51270303039,2,-1,-1,0,-7,-1,0,-1
51270303039,1,-1,-2,-1,2,-1,-1,-1
51270303881,1,1,0,-1,2,2,-1,-1
51270303881,-3,-1,-2,-2,-1,0,-1,-1
51270309373,0,-1,1,-3,-6,0,-3,1
51270309373,-3,-1,0,0,2,0,-1,0
51270316679,0,-1,-1,0,1,0,2,0
51270316679,0,-1,0,-3,-7,-2,-1,-3
51270331617,-1,-3,1,1,19,4,0,-1
51270331617,-1,2,-2,-2,-9,-4,-2,-3
51270339118,-3,-2,-3,0,2,-3,-2,-2
51270339118,-2,0,0,0,0,-1,1,1
51270354190,-2,-1,-3,0,0,0,0,0
51270354190,-1,-1,0,-1,6,-1,-1,0
51270361816,0,0,1,-1,-5,0,0,-1
51270361816,-1,0,-2,-2,-1,-2,-2,-1
51270376884,-3,-3,-1,-1,-9,-2,-2,-1
51270376884,0,0,0,1,3,-1,0,-1
51270384253,-1,-3,-2,0,2,1,0,0
51270384253,-2,-2,-1,-1,-1,1,1,0
51270393115,0,-2,-1,0,-11,-1,0,-1
51270393115,0,-1,-1,0,1,0,0,0
51270400029,0,0,-3,0,1,-3,-1,0
51270400029,1,0,-2,1,-2,-1,-1,-1
51270414142,0,0,-2,-6,-3,-3,-2,-1
51270414142,1,-3,0,-1,13,2,0,0
51270421815,-1,2,-1,-3,-15,-3,-3,-2
51270421815,-2,0,0,-2,3,1,-2,-1
51270437225,0,-1,-2,-3,-12,-6,-2,-1
51270437225,-1,1,-1,4,16,4,0,0
51270444286,-2,-2,-2,-1,0,-2,0,0
51270444286,-1,-4,0,-1,-1,-4,-3,-2
51270459337,0,-2,-3,-2,-5,-1,-3,0
51270459337,-2,-3,-1,-1,-4,-2,-1,-2
51270466696,-1,-1,0,1,2,1,0,1
51270466696,-1,0,-1,0,-3,-1,0,-2
51270476283,-1,-1,-1,0,7,1,1,0
51270476283,-1,-1,-1,-2,-8,-1,-1,-1
51270477313,-2,1,-2,0,2,-1,-1,-2
51270477313,0,0,-2,0,-2,-1,0,1
51270489117,-3,-2,1,0,-3,-1,-2,-1
51270489117,-3,-1,-3,-1,-7,-1,0,-1
51270496634,-1,-2,1,-2,2,3,0,0
51270496634,0,-1,-1,0,8,1,-3,-3
51270511604,-3,0,-1,0,-5,-4,-2,-3
51270511604,-3,0,-1,-1,-9,-2,-2,-3
51270519200,-1,-1,-1,-1,4,-1,-1,-1
51270519200,-1,-1,-3,-1,3,1,-1,0
51270534293,0,-1,0,0,-1,-2,0,-1
51270534293,-1,-3,-1,-1,-6,-2,1,1
51270541824,-1,0,-1,-1,0,-2,-1,-2
51270541824,1,-3,0,-2,-7,-2,-1,-1
51270556673,-2,-1,-1,-3,1,1,-2,1
51270556673,-1,0,-1,-1,0,-2,0,-1
51270564996,0,-2,-1,0,-2,-2,0,-4
51270564996,-2,0,0,0,0,-1,0,-2
51270571831,0,-1,-1,1,-5,0,-1,-2
51270571831,0,0,2,-1,7,0,-1,0
51270579243,-1,-2,-1,-4,-6,-2,-3,-1
51270579243,-2,-3,-3,-2,-5,-2,-1,-1
51270594268,-2,-1,2,1,3,-1,2,-2
51270594268,-1,-2,-1,-1,-1,-3,-1,-1
51270601796,0,-1,-2,1,0,-2,-1,-2
51270601796,-2,0,0,-1,0,0,-1,0
51270616814,0,-2,-1,-1,-1,0,0,-2
51270616814,0,-1,-1,-1,-2,-1,-1,-1
51270624343,-3,-1,0,-1,-4,0,0,-1
51270624343,0,-1,0,-2,2,0,0,0
51270639275,-2,-2,-2,-3,-13,-4,-2,-3
51270639275,-2,-1,0,-1,-3,1,-1,-2
51270647349,0,-2,0,0,4,0,-2,-1
51270647349,-1,0,-2,-1,-9,-1,-2,-2
51270654933,-1,-1,-2,0,3,-1,-2,-2
51270654933,-1,-2,-4,-1,1,1,-1,-1
51270655717,-1,0,2,-2,-3,-1,-1,1
51270655717,-1,1,-1,0,11,0,-2,-1
51270669296,0,-3,-1,-3,-4,-2,-1,-1
51270669296,-1,1,-1,-1,-3,-3,-1,-1
51270684238,-1,1,0,1,3,1,0,1
51270684238,0,-2,-1,0,-1,-1,-1,-1
51270699154,-2,0,-2,-1,1,0,1,-2
51270699154,1,1,0,0,-2,-3,1,-1
51270706715,0,1,-1,-2,1,-2,1,0
51270706715,-1,1,1,-1,-5,-3,-2,0
51270721791,-2,-2,-1,-1,-4,-1,-2,-1
51270721791,-2,-1,-1,-1,-2,0,-1,-1
51270729199,-3,-3,-4,-3,0,-1,-3,-2
51270729199,0,0,-1,-1,-2,-2,0,-2
51270738762,-1,-2,-2,0,0,0,0,0
51270738762,0,0,-1,0,1,0,-1,-1
51270739765,1,1,-1,2,-1,-1,-1,0
51270739765,0,-3,-1,-3,-4,-2,-1,0
51270751673,-2,-2,-2,-1,-1,-2,-1,-3
51270751673,0,-4,-2,0,3,-1,0,-2
51270759113,-1,0,-2,-2,-12,-4,0,-3
51270759113,-1,-1,-1,0,0,0,1,-2
51270774183,1,0,0,-1,2,-1,0,0
51270774183,-1,-1,-2,-2,0,-1,-2,0
51270781810,-1,-2,-2,0,-9,-2,-3,-1
51270781810,-1,0,-1,-1,-3,-1,0,1
