timestamp,emg1,emg2,emg3,emg4,emg5,emg6,emg7,emg8
51353447322,-1,-1,-3,17,7,4,-1,0
51353447322,0,0,-6,-19,-8,-3,0,1
51353452890,0,5,6,-2,-1,-2,-1,-1
51353452890,-2,-3,5,-4,-3,-2,-4,-5
51353453702,11,-1,-6,1,2,3,-1,4
51353453702,-27,-11,-10,-5,-4,-9,-9,-18
51353455318,1,7,8,1,1,3,1,0
51353455318,-8,-6,-3,4,0,-2,2,4
51353465815,-13,-8,-4,-9,-3,-1,0,-7
51353465815,12,4,1,-8,4,3,3,4
51353480853,-13,-10,-6,10,-5,-2,-4,-5
51353480853,-6,-1,-6,8,2,-4,-3,-2
51353488200,10,0,5,5,-4,-4,0,1
51353488200,-1,-1,-6,-10,0,-1,-3,1
51353503300,-5,-5,-8,1,0,3,1,0
51353503300,6,2,-6,-22,-2,3,0,-1
51353510681,-8,-7,-1,-3,0,-1,-1,-1
51353510681,5,2,3,-1,7,8,3,-1
51353525758,1,-7,-10,2,-5,1,0,-1
51353525758,-3,-2,-4,5,-8,-6,-1,0
51353535068,15,4,0,-15,1,-4,1,3
51353535068,-6,-3,3,10,0,3,1,-1
51353538842,7,0,0,-3,8,2,-1,6
51353538842,-16,0,3,3,1,1,0,-5
51353540906,5,2,-7,-5,-6,-3,-1,-2
51353540906,1,-5,3,7,-1,-6,-4,-4
51353593120,1,1,-1,-1,-6,1,-2,-1
51353593120,4,7,5,3,0,-4,-1,-3
51353600732,8,-1,-2,-4,-4,-8,-3,-2
51353600732,4,3,4,3,5,8,3,4
51353608103,4,0,-1,-2,-6,-3,1,-2
51353608103,-4,-5,-9,-11,-3,0,1,0
51353618324,-2,-2,1,6,-2,-5,1,-1
51353618324,-2,-2,-4,-3,8,5,3,-1
51353619942,-8,-4,1,-3,-18,-9,-6,-3
51353619942,1,-1,-3,0,17,3,-1,0
51353620764,-1,3,3,10,-10,-3,-2,-1
51353620764,0,-3,-4,1,-13,-2,-2,0
51353624652,0,-1,-6,-20,4,3,4,4
51353624652,1,-3,-1,-7,-4,0,-2,1
51353630681,-14,-1,1,0,7,2,-4,-6
51353630681,18,4,5,10,13,-1,-3,7
51353653167,-13,-3,-3,8,-9,-4,-7,-11
51353653167,0,-1,-2,1,-3,-2,2,4
51353660630,2,3,-3,-2,1,4,2,3
51353660630,2,-1,4,-7,-14,-12,-3,-3
51353675606,4,3,1,1,14,7,2,2
51353675606,-2,-3,-5,1,0,0,-2,-2
51353683135,0,-4,-6,-3,-2,1,1,1
51353683135,-7,1,6,1,-5,-1,-1,-4
51353698168,5,0,-3,1,0,-3,2,4
51353698168,-9,-3,0,2,-7,-2,-2,-5
51353707648,0,-1,0,0,1,2,0,0
51353707648,-2,4,-1,7,0,-5,-2,-3
51353709251,-1,-3,-1,-7,-4,3,0,-1
51353709251,-2,-4,-3,-10,-2,-5,-3,0
51353710068,0,-1,3,0,6,4,0,-3
51353710068,-8,-9,-9,-6,13,2,0,-1
51353720625,3,13,6,6,-17,-5,-2,3
51353720625,2,-6,-3,4,-3,-1,1,0
51353728140,-1,-2,-4,-7,-3,-7,-5,-3
51353728140,8,3,-2,3,4,3,1,3
51353743163,4,-1,-1,1,16,1,0,-3
51353743163,-10,1,5,-3,-16,-9,-6,-6
51353750599,-15,-3,0,-7,-3,6,0,-2
51353750599,-1,-5,-10,-3,-4,5,-1,-2
51353765633,3,2,4,3,11,5,3,2
51353765633,-3,2,-4,-7,-7,-6,-8,-4
51353773113,2,-3,-5,2,-5,0,11,3
51353773113,-5,3,-1,-10,-11,-13,-2,-1
51353789477,-6,-8,-3,-2,-5,3,0,-1
51353789477,1,1,2,9,12,-2,0,0
51353790244,4,3,2,-3,3,4,-2,0
51353790244,1,-2,-2,-4,-4,0,-3,1
51353795700,5,-2,-2,3,8,-4,-3,-3
51353795700,-5,-3,1,1,-1,0,-3,-4
51353810654,3,2,-2,-4,-1,2,-2,2
51353810654,-5,-2,1,7,5,-5,-4,-6
51353825664,-2,-5,-4,-29,-12,-4,10,3
51353825664,1,2,5,15,10,11,2,-4
51353833110,2,-3,-2,-4,-34,-21,-5,-1
51353833110,-6,2,0,6,4,6,2,-2
51353848115,9,0,-6,-11,-21,0,-6,-1
51353848115,-1,-4,3,-1,19,-2,-5,-2
51353855688,12,5,3,8,11,3,6,2
51353855688,-10,-6,-3,-4,3,3,2,-2
51353870596,-1,-2,-10,-20,9,-20,-12,-5
51353870596,5,4,3,9,-36,-9,-20,2
51353879473,-12,-2,-2,1,3,6,30,-4
51353879473,7,-1,4,21,8,-2,-18,5
51353881158,-3,1,1,0,-7,10,25,-5
51353881158,2,-2,-6,-12,-6,3,-1,-1
51353885632,-17,-4,2,-24,6,-1,-18,-5
51353885632,9,-3,-6,4,-4,-16,0,3
51353900623,-7,-2,0,10,16,7,-4,-1
51353900623,2,1,0,27,10,-2,0,0
51353908071,19,7,-1,-15,-3,8,-4,7
51353908071,-11,2,-2,-25,-27,-14,0,-6
51353923121,-6,-11,1,16,2,6,-13,-4
51353923121,7,-4,-2,3,3,3,9,3
51353930650,-2,-5,-5,-8,-19,3,-2,-2
51353930650,3,1,-2,-3,13,-2,0,-2
51353945612,-6,1,4,7,-5,-11,-3,1
51353945612,2,2,1,-4,7,8,5,1
51353953168,-8,-2,-1,4,12,-1,-4,-2
51353953168,-1,-2,-3,-9,-6,3,0,-6
51353962219,9,6,3,13,-16,-2,1,8
51353962219,-14,-4,2,19,5,0,7,-6
51353969103,5,-1,-4,-27,-2,-6,-16,-2
51353969103,-9,-6,-8,-14,-19,-4,-2,-7
51353975802,3,1,-2,0,18,9,0,2
51353975802,7,4,1,-7,6,2,5,5
51353990785,-2,-1,5,17,4,0,-1,-4
51353990785,4,4,4,16,-7,5,2,1
51354005720,-6,-3,3,6,21,0,-2,-4
51354005720,2,2,-1,-7,-14,-2,2,1
51354013207,-6,-2,-1,6,1,-6,-2,-1
51354013207,-1,0,2,15,19,15,1,-2
51354035821,5,4,0,-8,8,-6,-4,2
51354035821,-18,-9,-8,-23,-37,-10,-4,-8
51354043400,3,-2,1,10,5,3,0,0
51354043400,-8,-5,-4,-7,34,12,0,0
51354053534,-5,-3,-3,11,-15,-14,-7,-3
51354053534,10,5,1,-11,1,-1,-5,2
51354054370,3,-1,-5,-3,-12,-8,12,2
51354054370,-3,-1,1,-2,0,2,3,3
51354058310,-2,-1,-1,0,0,4,0,-1
51354058310,0,5,-2,-5,-2,-5,-4,0
51354065688,-6,-11,1,13,8,5,-4,-6
51354065688,-10,-10,-5,-12,-20,-5,-1,-5
51354088334,5,0,2,2,8,-2,2,-2
51354088334,-1,-2,-8,-4,-7,-3,-3,-1
51354095835,-9,12,-2,3,3,-3,-6,-4
51354095835,0,-16,2,9,-6,8,5,4
51354118178,3,19,3,-19,-5,-4,-5,-2
51354118178,-13,-18,-16,-23,-7,1,-2,-5
51354125849,0,-5,-3,4,5,-4,-2,-2
51354125849,2,6,-1,0,-3,-6,-2,1
51354144216,-11,-9,6,-2,-3,2,0,-3
51354144216,11,12,13,9,20,13,8,9
51354145232,-3,2,-2,-2,-15,-8,-4,0
51354145232,0,1,3,-2,-10,-10,-7,-8
51354148204,2,0,-5,8,-5,4,-1,-1
51354148204,6,4,-1,-5,1,-5,-5,1
51354155848,-2,-10,-5,-3,2,0,-2,1
51354155848,1,10,-1,-4,4,-1,4,5
51354170679,-6,-7,-1,1,-17,-9,-5,-6
51354170679,-3,-6,-1,-8,3,-6,-1,-3
51354178299,1,-1,0,-3,12,11,3,1
51354178299,0,3,1,12,-1,-10,-4,-3
51354193324,-1,-6,-8,-15,-3,4,2,-1
51354193324,-1,0,8,15,4,12,3,4
51354200676,7,1,-4,4,12,-4,-1,-2
51354200676,2,1,5,6,0,1,8,8
51354215669,0,-6,-5,6,12,-3,-12,-7
51354215669,-3,2,-2,-9,-17,4,-1,-5
51354224666,-2,1,3,7,-30,-18,-11,-4
51354224666,2,-6,-2,-18,-4,4,-1,0
51354226311,-3,-2,-1,11,6,1,4,1
51354226311,1,-1,-3,-4,5,2,2,0
51354231571,5,-4,-4,-3,-4,2,-2,3
51354231571,-10,-5,-6,-14,-4,-7,-5,-8
51354238200,1,6,6,1,-9,-3,1,2
51354238200,-2,-12,-8,12,12,-4,-3,2
51354253341,-7,-2,-8,-21,-3,-2,-1,-8
51354253341,6,0,-3,-8,3,-2,2,0
51354268178,1,1,7,19,12,0,-4,0
51354268178,-1,-1,0,-1,-7,2,3,1
51354275688,-2,-4,1,11,10,0,4,1
51354275688,2,14,3,-16,-2,-1,-6,-1
51354290802,-1,-14,-13,-3,-8,-2,1,2
51354290802,-2,-4,-3,-12,5,-5,-3,-3
51354298305,-2,-3,6,9,1,4,0,1
51354298305,0,-5,-2,1,-6,-5,-2,-3
51354307149,2,2,-1,-5,5,-3,0,2
51354307149,-3,-1,-3,0,1,-4,-2,-3
51354313932,-1,3,-4,-9,3,3,0,1
51354313932,-2,-1,-2,3,30,9,3,-2
51354320682,-5,-2,0,-2,-11,-3,-1,-3
51354320682,1,-1,-4,1,2,-3,-1,-2
51354328338,-1,2,-3,-14,-15,-1,-2,-1
51354328338,1,1,3,13,0,4,2,0
51354343173,-1,-1,-7,-12,-4,3,2,-2
51354343173,-5,2,7,7,7,-3,-2,-5
51354350699,2,-1,-1,2,4,11,1,3
51354350699,-5,-4,0,6,1,-8,-2,-3
51354365596,-1,-1,-4,-21,-26,-5,-1,0
51354365596,4,4,1,7,-5,-2,2,3
51354380668,-12,-7,-5,-10,-7,-10,-3,-6
51354380668,3,-4,-3,-10,-11,-7,-1,3
51354388341,-3,5,7,21,13,18,3,-5
51354388341,-2,-3,-4,-14,0,-2,-2,0
51354397916,7,0,1,7,-4,-4,-2,1
51354397916,-3,2,0,7,-4,0,-1,-3
51354398584,-1,-7,-2,-9,-7,-11,-2,-1
51354398584,-3,-2,2,-3,-23,-3,-1,-1
51354418319,0,-1,-3,2,3,-3,-2,0
51354418319,-5,0,-4,-17,-2,-2,-2,-2
51354425882,2,3,3,27,6,1,0,1
51354425882,-3,0,1,-1,-13,-7,-5,-6
51354440922,2,0,-1,-1,2,-3,-1,3
51354440922,-9,-5,-6,-10,-8,-1,-5,-3
51354448140,5,-1,-1,-7,1,5,1,2
51354448140,-10,-4,-3,2,10,-4,-2,-2
51354463092,2,1,3,3,6,3,1,-1
51354463092,-1,-3,-6,-6,-13,-6,-2,-2
51354470602,-5,-2,-1,0,0,7,1,-1
51354470602,6,3,-1,-4,-1,-10,0,1
51354487862,2,1,1,9,14,2,-4,0
51354487862,3,0,-2,-19,-35,-4,0,1
51354488921,-12,-6,1,10,6,-3,-3,-4
51354488921,1,-1,-2,5,5,3,-1,-1
51354500852,-2,-1,-2,-7,6,0,0,-1
51354500852,2,-3,4,19,6,0,0,-3
51354508424,3,2,-4,-9,3,-3,-4,1
51354508424,1,1,-2,-5,-12,-6,0,-2
51354523249,-3,0,1,-2,3,-2,-1,-2
51354523249,2,2,1,16,6,5,-1,-1
51354530745,0,-1,-9,-33,-10,-7,0,-1
51354530745,-3,-4,-2,-2,4,0,-4,-3
51354545829,0,-1,0,4,-13,-4,-2,-2
51354545829,0,-2,2,2,8,1,0,1
51354553286,0,-4,-4,4,-8,-4,-4,0
51354553286,3,4,3,-7,5,12,4,4
51354569679,-5,-1,1,8,19,1,0,-4
51354569679,1,-1,-4,-5,-27,-8,-2,0
51354570268,0,2,0,2,16,2,-1,-2
51354570268,-1,0,-1,1,12,0,-1,-1
51354575782,-2,-3,-1,-2,-10,0,1,0
51354575782,-3,-2,-1,2,11,7,1,0
51354583308,-2,-3,0,0,2,-1,-3,-1
51354583308,2,3,0,2,-3,0,-3,0
51354598138,11,2,-1,0,11,11,9,6
51354598138,-13,-4,3,1,-10,-9,-13,-9
51354605776,6,1,-4,-8,-7,2,1,2
51354605776,-2,-3,1,12,-2,-7,-1,-1
51354620621,-2,-3,-5,-18,-6,13,0,-1
51354620621,2,1,-3,0,-5,2,1,1
51354628117,1,1,1,1,-3,-5,0,1
51354628117,-3,-2,-3,-2,-5,0,-4,-2
51354643321,-1,1,4,7,-3,-9,-2,0
51354643321,-1,-3,1,-3,3,6,4,0
51354651386,-2,-2,1,15,21,0,-1,-2
51354651386,3,-2,-7,-7,-31,2,0,-1
51354659033,-6,-4,-1,-2,-5,-10,-5,-3
51354659033,2,1,-3,-4,-5,0,-2,-2
51354659646,-2,3,2,-2,-5,-2,0,-2
51354659646,-5,-1,0,2,13,1,-1,-3
51354680820,2,-1,-4,-7,-11,-5,-1,1
51354680820,5,3,0,5,18,2,1,3
51354688138,-7,-5,-6,-3,-10,-1,-1,-4
51354688138,1,0,2,-3,-31,-13,-4,-1
51354703349,-5,-5,-3,-5,-8,-1,-5,-4
51354703349,-1,-2,-2,1,11,-2,-1,-1
51354710678,2,2,-6,-5,-5,-2,-1,0
51354710678,-1,-3,-2,1,10,5,0,-2
51354725591,-1,-2,1,0,-8,-7,-4,0
51354725591,1,3,3,-6,-6,4,3,3
51354733286,-2,0,1,7,2,-2,-3,-2
51354733286,-5,-4,-3,-4,8,2,-2,-1
51354742765,0,-1,-3,-2,-6,-2,-1,0
51354742765,-1,-1,0,7,19,0,-2,1
51354743792,-2,1,1,-12,-14,-4,-2,-3
51354743792,-1,2,-2,0,12,3,0,-1
51354763252,-3,-2,-1,2,2,-1,-1,-2
51354763252,1,-3,-1,-1,0,0,0,2
51354770684,-4,-3,2,8,3,0,-3,-1
51354770684,0,-3,-3,-8,-2,-3,-1,-2
51354785617,-2,3,-1,-3,-4,-3,-1,-1
51354785617,-1,-1,-4,-4,-8,-6,-2,-2
51354793173,0,-3,-2,-4,3,-1,-2,0
51354793173,1,0,-1,7,-8,-3,0,0
51354808296,2,5,4,2,6,1,-2,1
51354808296,-4,-3,-6,-4,-4,0,-2,-2
51354815641,-2,-2,3,5,2,3,4,0
51354815641,0,-1,-3,-9,11,-2,-2,-2
51354825274,0,-2,-6,-7,-2,-3,-2,-2
51354825274,1,-1,0,8,-1,-3,-4,-3
51354826105,0,-1,-2,-7,2,0,-1,1
51354826105,1,-2,-1,5,7,2,1,0
51354838118,6,-1,2,-3,2,2,-1,2
51354838118,-11,-8,-4,-13,-23,-10,-2,-3
51354845804,-3,-1,1,13,20,5,0,-1
51354845804,-6,3,-7,-8,-10,-5,-2,-1
51354860618,-2,-2,4,7,-17,2,4,0
51354860618,-1,-3,-6,0,-4,-6,-5,-3
51354868264,2,2,-2,-16,1,-2,0,-1
51354868264,-3,-3,-1,-3,-32,-13,-5,-2
51354883231,-1,0,-1,2,10,3,2,1
51354883231,-1,0,2,2,-2,2,6,0
51354890594,-2,-2,-1,-3,-5,-4,-9,-2
51354890594,4,1,3,5,7,-1,-3,-1
51354905630,0,-1,-1,-2,-8,-2,-2,-1
51354905630,1,-1,-1,-1,10,2,-1,-3
51354914559,-1,-6,-5,0,0,-4,2,0
51354914559,-1,-2,-2,-4,0,7,3,-1
51354916108,0,-1,-4,-11,3,-2,-1,1
51354916108,-6,4,7,24,2,2,0,-1
51354920599,1,-4,-6,-21,-15,-2,0,0
51354920599,-1,-2,3,11,13,1,-1,-2
51354935839,-1,-1,-3,-4,-8,-4,1,0
51354935839,-3,1,-1,-7,10,5,-1,-1
51354943287,1,0,-1,4,-13,-5,-1,0
51354943287,-3,-5,-5,-2,-2,2,0,-3
51354958154,-4,-1,0,2,8,-2,-4,-3
51354958154,2,-1,-1,-5,4,1,0,1
51354965738,3,0,-1,-3,-31,-10,-2,-1
51354965738,-2,-4,0,-8,-2,0,1,1
51354980650,-3,0,-1,0,4,2,-1,-2
51354980650,-2,-3,-3,4,-6,-12,-3,-3
51354988069,0,6,5,4,15,5,1,0
51354988069,0,1,2,0,-3,-1,1,0
51354997193,-4,-4,-1,10,-1,-2,-2,-4
51354997193,-1,0,-5,-25,0,2,0,-1
51355003217,-2,-3,-9,-3,-3,1,1,-1
51355003217,-2,-1,1,4,11,-3,-2,-1
51355018134,-2,-3,-1,-6,-15,-5,-2,-4
51355018134,4,-1,4,21,13,7,2,2
51355025892,2,0,2,3,7,4,0,4
51355025892,-5,-2,-1,-3,0,1,-2,-5
51355040823,0,-1,-2,-4,-5,-1,-2,1
51355040823,0,0,-1,-5,-2,0,-1,-2
51355048168,-3,-3,-4,-4,-2,0,-1,-2
51355048168,8,1,2,7,4,4,2,3
51355063258,-5,-3,-3,-1,2,-2,-1,-2
51355063258,1,-1,0,-7,-26,-7,-3,1
51355070803,-7,-3,3,11,1,0,-2,-6
51355070803,1,1,-7,-24,-6,1,0,0
51355087021,1,3,2,8,11,-5,-3,0
51355087021,-3,-5,-7,-5,-6,-2,-2,-1
51355087789,-1,0,-1,3,6,0,0,-1
51355087789,0,-2,0,-1,-4,0,0,2
51355093237,-1,-2,-2,-1,5,-1,0,-1
51355093237,2,1,1,2,9,1,-1,-1
51355100789,-3,-3,-4,-6,-6,-6,-2,0
51355100789,-6,-2,-4,2,8,0,-2,-2
51355115788,7,4,-1,-5,0,2,-1,4
51355115788,-2,1,0,-3,-3,-3,0,-1
51355123269,2,0,-1,-4,2,2,-1,-5
51355123269,-1,-2,2,3,1,0,-1,-2
51355138154,1,-4,-2,3,-2,1,1,0
51355138154,4,0,1,-2,3,3,-1,1
51355147595,-2,5,4,9,-19,-7,-1,0
51355147595,-5,-5,-6,-10,5,-3,-2,-2
51355160755,0,1,0,0,2,0,-1,-1
51355160755,1,-3,-3,-5,-29,-8,-2,0
51355168864,-1,1,0,-1,9,3,0,2
51355168864,1,2,3,8,-9,-4,-2,-1
51355175674,-1,0,1,2,-7,2,-1,-1
51355175674,-8,-4,-5,-10,-4,-2,-1,-1
51355183251,-10,-5,-3,3,8,-4,-6,-5
51355183251,-1,3,1,1,-5,-2,-1,0
51355198096,-2,-3,2,1,19,9,4,-1
51355198096,5,1,2,3,-9,-8,-3,0
51355205555,-5,-3,-4,-6,-6,0,-1,-1
51355205555,10,-1,-3,3,11,1,-2,3
51355220615,-8,-2,-2,-7,-2,-6,-4,-5
51355220615,-2,-1,-2,-1,7,3,0,-3
51355228262,1,-3,1,-1,6,6,2,-1
51355228262,0,1,0,3,1,1,0,1
51355243237,0,0,3,10,-13,-7,-3,-1
51355243237,-6,0,0,-8,7,0,-2,-4
