timestamp,emg1,emg2,emg3,emg4,emg5,emg6,emg7,emg8
113120596612,0,1,0,-2,-2,-4,-1,-1
113120596612,1,-1,-1,0,0,-1,-1,0
113120597966,-2,-1,-2,0,1,0,2,0
113120597966,0,4,-2,-1,0,-2,-1,1
113120598586,0,-4,-2,0,0,1,0,1
113120598586,-1,1,1,0,-1,-3,-2,-3
113120637758,3,2,1,-2,-2,-4,-2,-1
113120637758,-2,2,1,-1,-2,-1,-1,-1
113120640212,-1,-1,0,0,1,1,0,1
113120640212,-4,-2,-7,-5,-4,-3,-2,-3
113120642257,-2,-11,-5,-1,-3,0,0,0
113120642257,1,6,2,-3,-1,0,2,-2
113120682985,-2,-3,2,0,-1,-1,-5,-3
113120682985,1,7,7,-1,-1,3,1,-1
113120683623,-4,-6,-9,1,-1,-4,-1,-5
113120683623,0,-2,-2,-1,0,0,-1,4
113120684396,-3,-1,-1,-3,-3,3,7,1
113120684396,0,0,-1,0,0,-2,-1,1
113120686004,-1,-1,2,-2,1,-3,-4,-2
113120686004,0,-10,-2,1,0,-1,1,-3
113120689952,0,5,-3,-2,-1,-5,-2,-2
113120689952,-1,-1,2,-2,-2,-1,-2,-2
113120690729,-4,3,-5,-2,-3,2,1,-1
113120690729,1,-1,-1,-2,-4,-4,-1,-1
113120727677,-1,2,4,0,0,1,-2,-1
113120727677,-1,1,2,-1,0,-1,-4,-4
113120736246,-1,-1,-1,-1,0,1,2,3
113120736246,-1,3,0,1,0,1,1,-2
113120737049,-1,-4,-2,-2,-3,-4,-5,3
113120737049,-2,-3,-1,0,0,0,-2,-1
113120780202,-1,1,0,-1,-2,-1,-2,-1
113120780202,-2,0,-3,1,-2,-3,-2,-2
113120780997,-1,-1,5,2,0,-1,1,0
113120780997,2,3,-3,-2,-3,-4,-3,-1
113120785221,2,-5,-5,-2,-1,-4,2,-1
113120785221,-4,-7,-4,-1,-1,-3,-3,-1
113120818052,-1,1,-4,-1,1,2,2,2
113120818052,-6,-3,0,-1,-1,3,0,2
113120819656,-2,1,4,-2,0,0,-3,-3
113120819656,-1,3,-1,0,-2,-5,-4,-2
113120820383,-3,-4,-1,1,-1,0,0,1
113120820383,-2,-5,-4,-3,-3,-2,-1,-2
113120825154,2,0,-2,-3,1,1,-2,-2
113120825154,-3,-4,-5,-1,-1,0,-4,-3
113120826762,0,5,5,-2,-2,-4,-3,-5
113120826762,0,2,2,1,2,4,3,2
113120828369,-2,-3,-2,0,-1,-2,-5,-4
113120828369,-1,0,-2,-1,-1,1,3,2
113120870201,-1,3,0,0,0,3,1,1
113120870201,0,1,-1,-3,-4,-4,-3,-3
113120871764,-3,0,-4,2,0,-3,-3,-1
113120871764,-3,-11,-5,-5,-4,0,-2,-1
113120872620,0,-2,-2,-1,-5,-4,3,0
113120872620,-3,-2,1,-1,-2,-3,-5,-5
113120916017,-3,-8,-1,-2,7,6,0,1
113120916017,2,6,3,1,-1,1,0,-1
113120917602,-1,-1,-2,0,-2,-1,-1,-2
113120917602,2,-2,2,-1,-2,-2,0,2
113120922279,1,4,2,1,-5,-6,-1,0
113120922279,0,4,-2,-1,2,1,2,3
113120923117,-4,0,2,-3,-3,1,-2,-4
113120923117,1,6,0,0,2,1,2,0
113120960962,0,8,0,-2,0,1,1,-2
113120960962,-1,-8,1,3,4,-4,-4,-3
113120963089,-2,-7,-2,1,-8,-7,-1,2
113120963089,-1,-3,-8,-9,8,2,3,2
113120964741,-1,-7,-5,2,-7,5,0,-1
113120964741,-4,7,-1,-4,4,3,-2,-5
113120966602,3,3,7,-2,-3,-3,-4,0
113120966602,-2,-7,-4,0,-4,-2,1,-4
113120968375,3,8,0,-2,-3,-2,-1,5
113120968375,-2,-2,0,1,0,0,1,1
113121060058,-1,2,2,2,1,2,1,0
113121060058,1,1,-3,-1,-2,-4,-2,-3
113121060870,-4,0,0,-2,-1,-2,-2,-3
113121060870,1,3,-3,-1,-1,0,1,0
113121094554,-1,-8,0,-3,0,-1,-1,1
113121094554,-2,-2,-5,-2,-4,-2,0,1
113121095308,-1,0,0,2,-1,-3,-3,0
113121095308,0,-2,-4,-2,0,-1,-1,0
113121103462,-1,-1,-5,-3,-2,-1,-1,-2
113121103462,-1,-8,-4,3,0,1,-1,-2
113121104301,0,-2,-2,-5,-4,-3,-2,-2
113121104301,-1,3,0,-1,-1,-2,1,-1
113121147696,-2,12,4,1,-2,-5,-4,-2
113121147696,1,-9,-7,-4,-2,-1,0,2
113121149254,-1,-2,-4,-4,-2,-1,0,1
113121149254,-2,4,0,0,0,-1,2,0
113121150051,0,2,5,-2,-4,-3,1,-1
113121150051,-1,0,1,-1,1,-1,-2,0
113121193464,1,-3,-2,0,0,-1,-1,-2
113121193464,-1,4,4,-1,-1,0,-4,1
113121194274,1,-4,-8,-1,-3,-2,-2,-1
113121194274,-2,-1,2,0,-2,-1,-2,-3
113121195151,-2,4,6,-2,-2,-4,-3,-4
113121195151,-2,4,3,1,-3,-2,1,-1
113121201181,3,-2,-1,2,7,5,2,3
113121201181,-2,5,-3,-5,-3,-3,-3,-1
113121202004,-3,1,5,1,1,1,1,-1
113121202004,-2,-6,-4,-1,-2,-1,-1,-2
113121202783,0,-1,-5,-6,-2,-1,0,0
113121202783,1,2,-1,-2,-3,-1,-1,0
113121238666,-5,2,5,4,0,-3,-4,-8
113121238666,-2,-11,-9,-2,3,1,1,2
113121239339,1,0,-2,0,-2,-2,2,5
113121239339,-2,-6,-2,-2,0,-2,-1,-1
113121245000,-3,1,-4,-1,-5,-4,-3,-3
113121245000,1,4,4,-3,-2,-6,-3,-4
113121245794,-4,-9,-1,0,-1,0,-1,-2
113121245794,-3,1,2,-1,1,4,3,3
113121290175,1,-2,2,0,-2,3,-2,-1
113121290175,-2,-2,-4,3,2,0,-4,-5
113121291094,-1,-4,-5,-2,-2,-4,-2,-2
113121291094,2,7,1,1,-1,-4,-1,-2
113121292728,-3,-12,-2,-2,-2,-1,1,-1
113121292728,0,-1,0,1,0,1,0,0
113121335368,0,-3,1,0,1,0,-2,-1
113121335368,-1,-4,-7,-2,-3,-3,-1,-1
113121336994,-2,8,4,-3,-7,-4,1,1
113121336994,0,-4,-1,1,7,0,1,2
113121337628,-4,1,-1,0,0,1,-2,-1
113121337628,-2,6,-3,-2,-2,0,-1,-4
113121373521,-1,-6,-6,-2,-5,-3,-3,0
113121373521,1,-5,-8,-1,1,0,1,0
113121374335,-2,-5,2,-1,3,3,-1,-4
113121374335,0,-4,-2,-1,-4,-2,-2,4
113121380188,-3,1,2,3,2,-2,0,0
113121380188,0,-8,-2,-2,0,4,4,5
113121380946,-2,3,-1,-1,-1,-4,-1,-2
113121380946,-3,-14,-5,-4,-6,-2,-1,1
113121382622,0,2,-6,-4,0,4,4,1
113121382622,-2,0,-3,2,0,-2,-4,-4
113121426191,0,-3,2,0,2,0,0,-1
113121426191,-3,-3,-4,-4,-3,2,0,0
113121426938,0,-1,0,1,0,-2,-1,0
113121426938,-4,3,-3,-3,-4,1,0,-3
113121431833,2,-13,-6,1,4,1,1,1
113121431833,2,5,1,-1,-4,-3,-2,-1
113121432529,0,7,5,0,1,0,0,-1
113121432529,-2,2,-3,-1,2,0,0,0
113121471066,2,-1,-6,-1,-1,-2,0,5
113121471066,-2,-3,4,0,-1,-2,-2,-6
113121472734,-2,6,2,-2,-2,2,1,1
113121472734,1,0,-1,0,2,2,0,4
113121477784,-2,4,4,0,-2,-2,-2,-1
113121477784,-3,-6,-3,0,0,-3,-3,-3
113121479391,1,-9,-6,0,1,-1,-1,1
113121479391,-2,1,-2,-3,-3,2,1,-1
113121480085,-1,5,4,1,-2,-2,-3,-2
113121480085,1,-9,2,-1,0,0,0,0
113121516000,-2,-2,-2,-4,-1,-3,-2,-6
113121516000,8,3,3,0,-2,0,0,1
113121517027,-12,2,-3,-2,0,0,-3,-1
113121517027,4,-8,-3,1,0,-1,0,-2
113121567883,-1,2,3,0,0,2,1,1
113121567883,-1,0,-1,-1,-1,-1,-2,-6
113121568561,1,-12,-8,-1,-2,-3,-3,-4
113121568561,-1,4,0,-3,0,-1,-1,-2
113121570096,-2,4,-2,-1,-2,-2,-2,-1
113121570096,-5,-3,1,-1,2,2,-1,-4
113121612873,1,2,2,-3,-2,2,0,2
113121612873,-3,-4,-4,-1,-1,-1,-3,7
113121614312,2,7,1,-3,-6,-3,-2,-4
113121614312,-4,-1,0,1,2,-3,-1,1
113121615259,1,3,3,-1,-1,-3,-2,-1
113121615259,-1,4,0,-2,-1,-1,1,-1
113121657513,-5,-20,-7,-1,2,1,-1,0
113121657513,-1,-1,-1,0,-2,-1,-2,0
113121658253,0,-3,-1,2,1,-2,-1,-2
113121658253,-2,6,1,-1,-1,-1,-2,1
113121659052,1,-2,-2,-1,-1,-1,-1,3
113121659052,-2,0,2,-2,-2,-3,-2,-4
113121703514,4,1,1,1,1,0,0,1
113121703514,-3,3,3,0,-1,1,0,0
113121704506,-2,-3,-4,-1,-2,-2,-3,-7
113121704506,0,-3,-6,-3,0,-1,-2,9
113121705168,4,0,-3,-2,-3,-2,-3,-1
113121705168,-20,3,-2,-4,-2,-1,-1,-10
113121747594,0,-14,5,-2,-2,-1,-1,4
113121747594,2,12,3,4,1,1,-1,1
113121748419,-10,-13,-6,-2,-2,-2,-1,-10
113121748419,5,0,7,6,2,-1,-5,4
113121750083,-12,0,-34,-6,-2,-3,-3,-2
113121750083,1,-7,-1,-4,-1,-2,-1,-2
113121755308,1,-3,16,4,-1,0,1,7
113121755308,-4,-15,-21,-4,2,2,0,-2
113121756795,4,5,8,8,2,-2,-2,-1
113121756795,2,3,-11,-7,-5,-4,0,2
113121757622,3,2,7,0,-2,-4,-4,1
113121757622,-4,2,-4,0,-3,-1,1,-2
113121793541,-4,5,2,0,-3,-1,-4,0
113121793541,-3,1,6,1,0,3,0,-5
113121794512,-2,4,-1,0,1,1,1,-1
113121794512,-2,-4,4,-1,-2,-2,-2,-8
113121798961,-9,1,11,-2,0,-2,-2,-6
113121798961,-3,-3,-6,0,-1,-2,-2,-2
113121799671,-6,0,-30,-6,-3,-2,-2,-4
113121799671,0,-3,-10,-7,0,0,2,-2
113121837783,-11,-6,-1,-4,-5,-2,1,-2
113121837783,5,-11,9,6,2,-1,-2,-1
113121839471,-9,4,12,-6,2,1,2,-1
113121839471,-5,-2,7,4,-2,-4,-3,-2
113121844700,-2,0,-20,-5,2,2,0,-1
113121844700,2,8,-1,1,-1,1,0,-4
113121846125,13,11,38,3,2,3,2,9
113121846125,-13,-19,-84,-14,-6,-6,-4,-7
113121847114,0,3,1,7,-1,-2,-1,-2
113121847114,3,-3,12,-7,-2,-3,-5,-4
113121890160,-6,2,26,7,0,-3,-2,-2
113121890160,4,7,25,2,0,-1,0,2
113121890930,1,-10,-22,3,-3,-3,-2,1
113121890930,0,9,18,-7,-3,-1,3,5
113121892526,9,-16,-47,-11,-4,5,2,4
113121892526,-4,3,2,17,-4,-7,-8,-3
113121927740,-7,-10,22,-6,4,2,-2,-6
113121927740,-4,-4,-77,-4,0,-6,-6,-4
113121929263,-6,1,7,9,1,-3,-3,-5
113121929263,-19,5,45,-7,-3,1,0,-1
113121980178,5,-2,16,1,-3,1,1,-2
113121980178,2,0,7,3,1,-1,2,2
113121981864,2,-1,-20,-9,-4,-2,-2,-1
113121981864,6,3,-13,-2,0,0,0,2
113121982700,10,5,5,5,0,-2,-2,0
113121982700,3,4,33,-8,-1,1,0,1
113121988491,-9,-2,-7,10,-2,-4,-6,-6
113121988491,3,15,43,2,5,4,7,5
113121989469,0,-17,-24,-3,6,6,2,5
113121989469,1,-18,-45,0,-3,-2,-3,-8
113122025150,-12,11,-23,-5,5,7,3,3
113122025150,1,1,23,19,-4,-1,0,5
113122026814,-2,-2,60,-10,-2,-3,-4,-1
113122026814,1,-12,-12,0,3,-1,-5,-3
113122027536,1,0,-20,0,-6,-5,-2,-1
113122027536,1,8,8,-5,12,0,4,3
113122032250,0,4,20,4,-7,1,1,0
113122032250,-11,-17,-43,-29,-3,-2,2,-1
113122033200,-23,-3,26,13,-3,-4,-2,-3
113122033200,-26,1,16,0,-3,0,0,-2
113122071059,-16,2,6,-3,-3,-3,-1,-3
113122071059,-12,1,-73,-8,3,-1,-1,-3
113122071830,19,-10,-3,-4,-3,-2,-1,-2
113122071830,28,-1,15,-6,2,-4,-2,-4
113122076511,14,-3,-24,0,-3,-2,-2,-6
113122076511,3,5,42,4,-7,5,6,2
113122077153,-15,0,-24,0,6,0,0,-2
113122077153,-25,2,-3,-2,0,1,1,-3
113122113595,-17,-5,10,-1,1,-1,2,-3
113122113595,-9,5,-15,5,-4,-3,-2,-1
113122114578,-3,-12,6,-11,-9,-6,-5,-2
113122114578,0,0,-11,-4,-3,0,-6,-2
113122123541,8,0,-8,-1,5,3,-2,1
113122123541,13,-5,2,4,-5,-3,-6,1
113122124344,15,-4,-8,-7,-2,-5,-5,-3
113122124344,14,-2,31,-1,-6,-4,0,-2
113122167776,17,-2,-66,-5,3,-1,-1,-1
113122167776,18,-7,14,3,0,1,3,-1
113122168478,4,7,-3,4,2,0,1,1
113122168478,2,-5,-9,-10,-6,-3,-3,1
113122170156,7,5,14,7,0,-1,2,2
113122170156,0,-10,1,-5,1,0,-1,2
113122203971,-2,0,-11,1,-1,-1,2,-1
113122203971,-1,2,15,0,-8,-1,2,2
113122213496,-4,2,11,5,7,5,3,3
113122213496,-3,-1,9,11,1,-2,-2,-3
113122215175,0,-7,14,-2,-2,-5,-2,-2
113122215175,0,4,-2,-4,-1,2,-1,-1
113122250356,3,2,15,0,1,3,-1,1
113122250356,-6,-4,-34,3,5,1,0,0
113122257878,-3,-1,3,1,-3,0,0,1
113122257878,8,1,6,0,0,-4,-3,-3
113122258547,10,6,1,-9,-10,-8,-3,-4
113122258547,13,0,0,1,-2,-1,-2,1
113122260195,6,-24,-12,3,0,0,-1,0
113122260195,5,-3,1,-2,-3,4,-1,-1
113122303533,3,1,2,0,-2,2,3,-1
113122303533,1,1,-5,-1,0,1,0,0
113122304533,1,-3,4,-3,-3,-2,-2,-4
113122304533,-2,-9,-44,-4,-1,-4,-1,-4
113122309600,-5,0,-3,1,-2,-6,-3,-2
113122309600,-4,-2,-4,-4,-1,-2,-2,2
113122310284,-6,-2,-4,2,1,2,-1,0
113122310284,-1,-4,14,-1,0,0,1,0
113122311912,-2,-6,-22,-9,-5,-6,0,-3
113122311912,3,-11,-9,2,1,1,-4,-1
113122348538,-1,6,-7,-2,1,4,2,1
113122348538,-4,-13,1,0,2,0,-1,-2
113122349501,-2,0,0,0,-4,-4,-2,0
113122349501,-2,2,1,-3,-6,-5,0,-1
113122354033,1,-2,4,4,3,0,-3,-1
113122354033,-1,-1,6,2,-2,-1,0,-1
113122354740,-2,-2,1,-2,-3,-3,-1,1
113122354740,-7,5,26,-1,7,2,0,0
113122400298,-7,1,-12,-4,-6,-2,-2,-2
113122400298,-1,-3,5,-1,1,-1,-2,-2
113122400939,-2,-8,-7,1,-1,-2,-1,-1
113122400939,-1,-1,1,-6,-1,5,3,2
113122402566,-2,0,17,3,-1,0,-1,-1
113122402566,-2,3,-8,-5,-6,-2,-1,-1
113122490331,-2,-5,-10,-3,-2,-4,-6,-2
113122490331,-2,-1,-7,-2,-3,-1,-3,-2
113122492000,0,0,-20,-5,-3,-2,0,2
113122492000,-2,2,-6,-1,7,1,0,0
113122492711,-2,-5,14,3,-8,-4,-1,-1
113122492711,2,-5,1,-1,3,-4,-4,-3
113122536053,0,0,-2,4,1,5,4,3
113122536053,-1,5,6,-5,-1,1,0,-1
113122536797,-4,-9,-2,-2,1,1,-3,-1
113122536797,-2,-4,-12,-2,-1,-1,-1,-2
113122541466,2,3,9,3,10,0,0,0
113122541466,3,5,2,4,-6,-4,-1,-3
113122580339,3,3,1,-3,3,2,-2,-2
113122580339,1,-13,-2,0,0,2,1,1
113122581862,-5,1,-1,2,-2,-2,-2,-4
113122581862,-6,-2,13,0,1,-3,0,-2
113122582720,-4,4,5,1,-3,-2,0,-1
113122582720,-2,-2,-22,1,4,0,1,-1
113122588524,-3,-6,-6,-5,-8,-2,0,0
113122588524,0,4,-1,-1,2,0,0,1
113122589361,0,-1,-14,-3,-1,1,2,1
113122589361,-4,-1,14,2,-1,-1,-1,-2
113122590149,-3,4,7,2,-1,-1,-1,0
113122590149,-4,-4,6,-2,-6,-2,-1,1
113122625417,-2,0,0,-1,5,-2,0,-1
113122625417,-3,0,9,2,-1,-1,0,2
113122626849,-1,1,-3,-3,2,0,0,-2
113122626849,-3,-15,-8,-3,1,0,-3,-2
113122632205,-5,1,-7,-1,-4,-1,3,3
113122632205,-4,11,0,3,0,0,-3,-2
113122633884,-4,-3,0,0,-3,-3,-2,-1
113122633884,-2,-6,8,-6,-4,2,0,-1
113122634438,-4,-3,2,-1,1,0,-4,-4
113122634438,-3,-1,-10,-5,-4,-2,0,-2
113122678456,0,2,0,2,3,0,0,1
113122678456,0,7,-2,1,2,1,-3,-2
113122679278,0,-10,-4,1,-3,-2,-3,-1
113122679278,-3,-5,-5,-6,-9,-3,-2,-2
113122730365,-1,1,8,3,3,-1,-1,-4
113122730365,-2,0,2,1,-2,-1,-1,-2
113122731038,-3,3,1,-3,-2,-2,-2,-4
113122731038,-2,-1,-8,-2,0,-1,-2,-2
113122732605,-2,-8,-4,-2,-4,3,1,0
113122732605,-1,9,1,-1,0,0,1,-1
113122760159,-1,-9,-8,4,-2,-4,-1,-1
113122760159,2,-3,1,-6,0,-6,-4,-3
113122762024,1,-5,-4,2,-2,2,2,1
113122762024,3,3,-8,-2,3,2,0,0
113122812924,0,4,3,0,-7,-2,-1,-2
113122812924,0,2,-6,-1,3,5,3,3
113122813479,-2,-7,2,-2,1,4,-1,0
113122813479,-2,0,-3,0,-1,1,0,0
113122815090,-2,-1,-6,-3,-3,-4,-2,-4
113122815090,-3,4,8,0,-4,-5,-3,-4
113122819762,2,0,-2,0,-1,-1,-1,0
113122819762,-1,-3,-4,2,2,3,1,1
113122821199,-2,4,6,-2,-1,-3,-2,-3
113122821199,0,-7,-16,-6,-1,-1,-2,-1
113122857775,-2,-8,1,-1,-3,1,-2,0
113122857775,-3,-1,1,0,-2,-2,-1,-2
113122858625,0,5,20,1,-5,-4,-2,-2
113122858625,-2,-6,-32,1,8,-1,4,-2
113122860207,-1,-5,-18,-5,-7,-4,-2,-4
113122860207,-1,4,4,-1,0,0,0,0
113122863939,0,-8,-10,0,4,3,1,2
113122863939,-3,-9,13,-8,-6,2,1,0
113122865524,-2,1,-8,-3,-5,-3,-2,-2
113122865524,-2,-4,-5,3,1,-3,-3,-1
113122893738,-1,11,4,1,-6,-4,-3,-2
113122893738,-1,-2,8,-1,0,0,-3,0
113122903536,1,1,-3,-3,3,-1,0,1
113122903536,-1,-3,8,2,-3,-3,-2,-1
113122904328,-2,0,-7,-5,-1,-2,-1,-1
113122904328,-1,3,-1,3,6,1,-1,-1
113122908302,-4,-4,3,-1,-7,0,-1,-2
113122908302,-1,2,12,1,3,-1,2,2
113122909034,-1,-5,-33,2,0,1,-2,-1
113122909034,-2,0,-3,-6,-5,-6,-3,-2
113122954431,-2,5,3,0,1,-2,-1,-1
113122954431,0,-2,4,-2,-4,1,1,-1
113123000281,-1,-6,-1,-4,1,0,0,0
113123000281,0,-2,4,4,-4,-3,-3,-5
113123001780,1,4,-3,1,5,3,1,-1
113123001780,0,-11,-5,-2,-3,2,0,2
113123002732,0,2,4,-1,2,2,-2,-1
113123002732,-1,9,-4,0,-3,-1,-1,0
113123038464,0,-12,9,-1,2,-3,0,-2
113123038464,-2,0,0,0,-7,-4,-2,-4
113123039448,2,0,0,-3,-1,-4,-2,-2
113123039448,1,6,7,-1,2,1,-2,1
113123040283,0,5,-3,1,5,-2,1,-1
113123040283,-3,1,19,7,-2,-1,-1,1
113123044558,-3,-11,1,-2,1,1,0,1
113123044558,1,1,2,-1,-6,-3,-2,-4
113123046257,-3,-8,-11,-3,-3,-3,-1,1
113123046257,-2,2,-5,0,-1,-2,-1,-2
113123047012,0,4,-3,-3,-2,-1,-6,-2
113123047012,-1,4,4,-2,-4,-3,-2,-1
113123082919,-2,-2,-5,0,-1,3,0,2
113123082919,-1,-9,-5,-3,-2,-2,-1,-2
113123084393,-1,-3,2,-1,-3,-2,-2,-1
113123084393,0,-1,-1,-1,-1,-3,0,2
113123089523,1,3,-1,-1,1,-1,-1,-1
113123089523,1,7,5,0,-3,1,-1,-1
113123091162,1,-1,3,-1,0,-1,0,0
113123091162,-2,-10,-9,1,1,-1,-2,-1
113123091979,-2,-7,-4,-2,-2,-3,1,-1
113123091979,-3,3,2,0,-1,-1,-3,0
113123135297,0,1,1,1,-2,-1,-2,-1
113123135297,0,-2,-11,-3,0,1,-1,-2
113123136133,0,4,6,1,0,-2,-3,-4
113123136133,-3,-4,-3,-4,-2,-1,1,2
113123137664,-4,-6,-2,2,1,0,1,-1
113123137664,-1,3,-2,-3,-2,1,0,0
113123141514,-3,-2,2,-1,-1,-1,0,0
113123141514,-1,-4,-3,-1,-3,-2,-2,-1
113123142945,2,-3,4,0,0,0,-3,-2
113123142945,1,2,-2,2,-2,0,2,2
113123180449,-2,1,-1,-5,-1,-3,-3,-3
113123180449,-2,2,6,0,4,-1,-2,0
113123181881,-1,-7,-6,-2,0,-1,-1,1
113123181881,-2,-7,-13,-3,-2,-3,-5,-5
113123182710,2,6,-1,1,-2,1,0,0
113123182710,0,-1,3,1,1,2,3,2
113123187223,-2,1,-3,-3,-1,2,-2,-1
113123187223,-1,-2,-4,-3,-2,-1,0,-1
113123188130,0,-3,3,-2,-5,-4,-1,-1
113123188130,-1,1,2,1,5,-4,-3,-3
113123226035,1,2,-1,0,-4,-2,-2,-1
113123226035,-1,-2,-2,0,-1,5,3,0
113123226849,-2,0,0,0,1,6,5,3
113123226849,-2,-7,-4,0,-1,0,-3,-1
113123230770,0,3,1,-4,-4,-4,-2,0
113123230770,-2,5,4,0,-1,-5,-5,-3
113123231479,-2,-7,-6,-2,-1,-3,-3,-3
113123231479,1,-1,0,0,-1,1,1,0
113123278488,-2,-2,-3,-2,-1,0,-1,0
113123278488,-1,-9,0,-2,3,-2,1,-1
113123279330,0,1,1,1,-3,-2,-1,0
113123279330,-1,1,-6,-4,-2,-2,2,0
113123315233,-1,2,1,-2,-1,0,-1,-2
113123315233,-1,4,2,0,-3,-1,-1,0
113123316097,0,-2,-1,0,0,0,-3,-1
113123316097,0,-4,-1,-1,-2,0,-6,-2
113123317673,-4,3,-1,1,0,1,2,1
113123317673,-2,-5,-8,-2,-4,0,-1,-1
113123322197,-1,1,8,2,0,-4,-3,-1
113123322197,-2,-4,-6,-1,1,-1,-1,-3
113123323747,2,0,2,2,1,1,1,-1
113123323747,-1,2,6,-3,5,-2,-2,-2
113123324663,-1,3,-1,-2,1,0,1,1
113123324663,1,4,-1,1,-4,0,-1,-2
113123359541,-3,-9,-7,1,3,-1,0,1
113123359541,-1,4,0,-2,-1,-3,-2,-2
113123375190,-4,-13,-7,0,2,-3,-3,-3
113123375190,0,-3,-4,1,-3,-1,-1,-1
113123376138,0,5,13,-3,-2,-2,-2,-2
113123376138,-2,-1,-4,2,-1,-1,1,0
113123403175,0,-1,0,-4,-1,1,1,0
113123403175,0,1,5,-1,2,-2,-2,-2
113123412940,1,-5,-13,3,0,0,-1,-2
113123412940,-1,-2,-4,-2,-3,-1,0,-2
113123414464,-1,7,2,0,-3,-3,-2,0
113123414464,-4,-5,-2,-2,2,-1,-2,-1
113123415357,-3,1,2,0,1,1,0,-1
113123415357,-1,3,0,0,-3,-2,-3,-1
113123420549,0,-2,-7,-1,-3,0,0,-1
113123420549,-1,-7,-4,-2,-1,-2,-3,-2
113123421410,0,-2,-8,-3,0,-1,2,-1
113123421410,0,5,8,1,0,0,0,0
113123457790,-2,-4,1,-2,-4,-4,-1,-3
113123457790,0,1,5,1,2,0,0,-1
113123458481,-1,5,-4,0,-1,-1,-3,-2
113123458481,-1,-2,1,-3,-4,-1,-3,-2
113123460149,-1,-6,-2,4,1,-2,-1,-1
113123460149,0,-2,2,-2,0,2,2,2
113123463964,-4,-3,-5,-2,-3,-2,-2,-1
113123463964,0,3,-5,-2,1,0,0,0
113123465521,-2,1,2,1,1,0,0,-2
113123465521,0,3,-2,-3,-3,-3,-2,0
113123510352,0,0,5,1,1,1,-1,-2
113123510352,-3,-9,-1,-2,-3,-2,-1,-2
113123511970,-2,3,-2,-2,-6,-7,-4,-2
113123511970,-1,-3,-1,-2,1,-3,-2,0
113123512670,-1,-4,-3,-4,2,5,1,0
113123512670,-3,-4,-9,-3,-2,2,1,-1
113123556122,-2,-1,2,-3,0,1,-1,-1
113123556122,-1,3,-5,0,-4,-1,-2,-1
113123556883,-1,1,5,-2,-5,-6,-3,-2
113123556883,0,1,4,0,4,-1,-1,-1
113123592126,0,-1,-4,0,-1,2,1,0
113123592126,-1,1,-6,0,-3,-2,-1,-1
113123600366,-3,-2,1,1,2,0,-4,-2
113123600366,-1,-1,3,-2,-2,0,1,0
113123601824,0,-2,-4,-3,1,-1,-1,-1
113123601824,-3,-4,-5,1,-5,-1,-2,-3
113123602724,-1,0,-1,-5,0,-1,1,1
113123602724,0,-1,1,0,2,-2,-2,-2
113123645998,-1,0,6,1,-1,-2,-3,0
113123645998,0,5,3,3,1,3,2,1
113123646973,0,-1,3,-2,1,-3,-3,-1
113123646973,-2,2,0,-1,0,-2,0,-1
113123647617,1,5,-4,2,0,-4,-2,-1
113123647617,0,3,3,-2,-3,-3,-1,-3
113123691109,-1,-9,-5,3,2,2,2,-1
113123691109,-1,-5,1,0,-1,-2,-2,-1
113123692016,-2,-1,-8,-2,-3,0,0,-1
113123692016,-2,-6,6,-2,1,2,-1,1
113123692675,0,-1,0,0,4,0,0,-2
113123692675,-1,-4,0,0,-9,-2,-2,0
113123697945,-1,-2,-1,-4,5,2,2,-1
113123697945,-3,-8,-5,-5,-3,0,0,0
113123698832,-1,1,-1,1,-3,-3,-1,-1
113123698832,1,0,-2,-1,-1,-3,-1,-1
113123735151,1,6,6,-2,-6,-2,-1,0
113123735151,-1,-13,2,-1,-2,-1,1,0
113123735943,-2,-4,-7,0,1,4,2,1
113123735943,-2,0,2,0,3,-1,-1,0
113123737637,0,10,6,-1,-1,0,-2,0
113123737637,-1,2,1,-2,0,1,-2,0
113123740751,-2,-6,-9,-1,-5,-3,-1,-4
113123740751,0,7,11,2,0,-1,1,1
113123787796,-2,-11,-8,-4,2,2,1,0
113123787796,-2,4,6,1,-6,1,-1,-1
113123788656,-1,-2,0,-3,5,0,-2,-2
113123788656,-3,3,-2,1,-2,-1,-2,-3
113123790112,0,-3,0,0,-2,-3,1,0
113123790112,-2,-3,-4,0,0,-1,1,-1
