timestamp,emg1,emg2,emg3,emg4,emg5,emg6,emg7,emg8
67752004065,-1,-3,-2,2,-4,-2,-1,0
67752004065,0,-3,-3,-1,-1,2,-1,-4
67752009538,-1,-1,0,-2,-1,-1,0,-1
67752009538,0,0,0,5,3,2,3,0
67752010290,0,-2,-3,-6,-3,-1,-1,-1
67752010290,0,0,0,-1,0,-3,-1,-1
67752011785,0,-1,0,0,-3,-3,-1,-2
67752011785,-1,-2,-2,-3,-1,-2,-1,-1
67752023093,-2,0,-2,-1,-2,-1,-2,-2
67752023093,-1,0,-1,-3,1,1,1,1
67752031245,-1,0,-1,4,0,-1,-1,0
67752031245,0,0,-1,-13,-4,-1,-1,-1
67752037596,-1,1,-1,0,0,-1,-1,-2
67752037596,0,2,0,0,-2,-2,1,-1
67752052348,-2,-3,0,5,0,1,0,0
67752052348,-1,-3,-3,-3,-2,-2,-5,-2
67752061222,-1,-2,1,-2,-1,-1,0,-1
67752061222,0,-1,0,-2,-1,0,-2,-1
67752068874,0,1,-1,-3,-2,-1,0,-2
67752068874,1,-2,-4,3,0,-1,0,-2
67752083346,0,0,6,1,-1,-1,-2,-2
67752083346,-1,-2,-3,-1,-1,1,2,0
67752091154,-1,-2,-1,-4,-2,-2,-3,-2
67752091154,1,0,2,6,4,2,1,2
67752130025,-2,-3,-3,-2,-2,-2,-3,-2
67752130025,-1,0,-4,-1,0,0,0,-1
67752131462,-3,0,-1,-1,-4,-4,-3,-3
67752131462,-1,-1,-1,1,-1,-1,-1,-1
67752132480,0,0,0,-1,0,1,0,-1
67752132480,0,-1,0,0,-2,-3,-1,-1
67752134898,-1,-2,-2,-1,-1,-1,0,-1
67752134898,-2,-3,-1,0,1,-1,0,-1
67752142352,-1,-2,-2,-3,-3,-1,1,-1
67752142352,-1,-2,-2,-5,-1,0,0,-3
67752151191,-1,-2,8,2,-4,-2,-3,-2
67752151191,-1,-1,-1,-1,-3,-4,-3,-1
67752157307,-1,-1,0,0,1,-1,-2,-1
67752157307,0,2,-2,-1,3,3,4,2
67752172350,-1,-4,-4,-4,-4,-2,-3,-1
67752172350,-2,-2,0,-3,-5,-2,-1,-2
67752179863,-1,-1,-1,-3,-2,-4,-1,-1
67752179863,0,0,1,0,0,-3,-3,-2
67752188708,1,1,-2,0,1,0,0,-1
67752188708,-1,0,0,-2,1,2,1,0
67752202237,-1,-2,0,0,0,1,1,1
67752202237,-2,-2,0,-2,-3,-2,-3,-1
67752211214,-1,0,-2,-2,0,1,1,1
67752211214,0,-1,0,1,-3,-3,-3,-3
67752217400,-1,0,-1,0,2,-2,2,-1
67752217400,-1,-1,0,0,-2,1,2,0
67752232419,-1,-3,-3,-2,-2,-4,-4,-1
67752232419,-1,1,1,0,0,0,1,0
67752239655,0,1,-1,1,-4,-1,-1,-1
67752239655,-1,-3,-3,-4,-5,-5,-2,-2
67752248769,-1,0,1,-1,3,0,1,-1
67752248769,0,-1,-5,-2,-2,-2,-2,-2
67752263141,-2,-2,2,-1,0,0,-3,-2
67752263141,-1,-2,-1,0,1,0,1,-1
67752269881,-1,0,-1,-3,-1,-1,-2,-1
67752269881,-1,0,-1,1,4,5,4,2
67752277368,-1,0,-3,-1,-1,-2,0,0
67752277368,-1,-2,0,0,-3,-2,-2,-2
67752292451,-1,-3,-2,-1,-1,-2,-1,-1
67752292451,1,-2,-1,-1,0,0,-1,-1
67752299921,-1,-1,-2,0,-2,0,0,0
67752299921,0,-1,0,-2,-2,0,-2,0
67752308641,-1,-1,-1,1,-1,0,-1,0
67752308641,1,-1,-5,-5,-2,-1,-1,0
67752323145,-1,-3,-2,0,0,0,-2,1
67752323145,0,-1,0,2,0,-3,-2,0
67752329803,-2,1,-2,-5,-3,-4,-3,-1
67752329803,-4,-3,-1,0,-1,-1,-2,-3
67752337264,1,-3,-2,0,1,0,0,1
67752337264,-2,-1,1,2,0,1,1,0
67752352231,0,-1,-1,1,1,2,1,-2
67752352231,-1,0,-1,-4,-5,-7,-5,-3
67752359722,0,-1,-3,-2,-1,-1,-2,-2
67752359722,0,-1,0,0,0,0,-1,-1
67752368680,1,0,-1,1,1,3,0,1
67752368680,-1,-1,0,1,-1,1,1,1
67752383095,0,-1,-2,-3,-6,-1,-3,-2
67752383095,-1,-1,-2,-1,-3,-1,0,-1
67752389868,-1,-1,-1,-1,3,2,2,1
67752389868,-2,-1,1,0,-2,-3,-4,-2
67752397385,-2,-1,-3,-1,1,1,2,1
67752397385,-3,1,0,0,0,0,-4,-2
67752412338,-2,-1,-5,-6,-2,0,1,0
67752412338,-1,-1,0,-2,-2,-1,-2,-2
67752419842,-2,0,2,-1,2,0,0,-3
67752419842,-1,-2,-1,-3,-5,-3,-2,-2
67752434863,-1,1,0,-2,-1,-4,-2,-2
67752434863,-1,-1,1,-1,-1,0,1,-1
67752442407,-2,-1,-1,-1,-3,-3,-4,-2
67752442407,-2,0,-2,-1,2,4,5,0
67752451296,0,-2,0,-1,-1,-1,-2,-2
67752451296,-2,-1,-4,0,2,1,1,1
67752457368,0,0,1,-3,-5,-7,-3,-2
67752457368,-2,-2,-2,1,5,2,2,1
67752472245,-2,-4,-1,-1,-4,-5,-4,1
67752472245,-1,-1,1,1,-1,-1,-1,1
67752479906,-1,0,1,-1,-2,-1,-1,0
67752479906,-1,-1,-3,-3,-3,-3,-4,-2
67752494896,-2,-2,0,2,3,1,3,-1
67752494896,-2,-2,2,2,3,4,1,-1
67752502249,-2,-2,-3,-2,-2,-2,-2,0
67752502249,1,0,3,-3,-4,-3,-3,-1
67752511205,0,0,0,1,0,0,-2,-2
67752511205,1,1,-3,-4,-3,-3,-2,-2
67752517399,2,2,10,4,3,2,3,0
67752517399,-1,-3,-12,-4,-2,-1,-3,-1
67752532265,0,0,0,1,0,3,2,1
67752532265,-3,-4,7,-1,-5,-2,-1,0
67752539897,0,-1,-4,-3,-2,-4,0,-3
67752539897,-3,-3,-2,3,1,0,0,2
67752554890,-1,-1,-4,-2,-1,-3,-1,-1
67752554890,2,2,4,-2,-3,-3,-2,-1
67752562208,0,4,9,3,-2,-3,-4,0
67752562208,0,-2,20,2,-5,3,3,-1
67752571217,-1,0,-1,2,7,0,0,-2
67752571217,0,1,-15,-6,4,1,1,1
67752577320,-1,-1,17,18,-1,-1,-2,-1
67752577320,0,4,4,-8,-4,-4,-2,1
67752592388,0,-1,-6,-9,-4,0,-2,0
67752592388,-3,-7,-1,-5,-10,-7,-6,-2
67752599904,-1,0,0,8,7,5,4,1
67752599904,2,-2,-23,-13,1,2,0,0
67752614917,-3,-3,42,30,-5,-2,-3,-3
67752614917,0,1,-17,-11,2,-4,-1,0
67752622404,0,1,-10,-11,-2,-1,-1,0
67752622404,-5,-9,-8,1,-6,-5,-4,-3
67752631253,0,2,-5,-15,-5,-4,-2,0
67752631253,0,1,3,10,3,7,4,0
67752637318,-1,-4,4,-1,-2,-1,0,-2
67752637318,1,1,-4,2,8,1,1,-1
67752652425,0,-3,-17,-11,-4,-4,-3,1
67752652425,-4,-3,11,3,-1,-6,-3,-5
67752659837,0,0,-9,-6,5,4,1,1
67752659837,-1,-1,-11,-7,-2,-2,-2,-1
67752674922,-3,0,6,3,3,0,0,-2
67752674922,0,-3,-4,-8,-3,-3,-2,-1
67752682403,0,5,4,3,-4,-2,-2,0
67752682403,-4,-7,1,-1,-1,-2,-2,-1
67752691257,2,1,-19,-16,-4,0,0,-2
67752691257,-6,0,28,11,0,0,-1,-2
67752697358,-4,-6,-12,3,-3,-2,-3,-3
67752697358,-4,10,19,7,2,-1,0,0
67752712409,-2,-12,-19,-2,0,0,-1,-3
67752712409,4,-1,-10,-8,-1,-1,0,1
67752719945,-7,-3,8,7,2,2,0,-1
67752719945,-3,0,-6,-3,-1,0,-1,-3
67752734942,1,1,2,1,2,-1,1,1
67752734942,-2,0,3,4,-2,-1,-2,-2
67752742904,-10,-7,-13,-15,-9,-4,-4,-6
67752742904,-5,-1,-3,-3,-1,-1,-4,-5
67752749820,26,5,-9,1,-1,0,0,2
67752749820,5,-2,-5,4,2,1,2,4
67752765546,-9,-9,-10,-8,-4,-5,0,2
67752765546,4,0,2,-1,1,-3,-7,-10
67752772328,-16,-7,-5,10,-4,-2,0,0
67752772328,30,1,-17,-31,-4,-2,-4,8
67752779930,9,-2,27,27,1,2,3,-17
67752779930,-1,3,-40,-50,-7,-3,-12,7
67752794806,-6,-2,12,8,2,1,8,4
67752794806,-13,-7,-10,4,-2,-1,1,-8
67752803054,7,2,-4,-4,-2,-3,-1,2
67752803054,14,-6,10,11,-2,-2,2,-1
67752809870,-4,3,8,6,1,0,-5,-2
67752809870,-18,3,3,15,2,0,1,-11
67752825336,17,-1,-9,-32,-3,2,0,19
67752825336,-6,0,14,8,1,1,3,-1
67752832348,12,3,-6,-9,1,-1,-2,3
67752832348,-5,0,4,-4,-6,-4,-2,-7
67752839772,-4,3,2,0,-2,-5,-4,-7
67752839772,-22,-6,-6,0,0,-1,0,-14
67752854922,24,1,7,6,-2,-2,-2,9
67752854922,3,3,1,4,3,3,-2,-11
67752863097,-3,1,-8,-9,-6,-7,-4,-1
67752863097,5,-3,-3,3,2,5,4,11
67752869952,-18,2,2,5,2,0,-3,-12
67752869952,-3,1,5,15,3,-2,0,7
67752885630,3,0,-10,-26,-4,-2,-3,4
67752885630,3,0,4,4,-1,-2,-1,-3
67752892456,-15,-7,-5,-8,-4,0,0,1
67752892456,1,-1,-1,-4,-3,1,0,4
67752899901,-5,-2,0,15,1,0,0,-4
67752899901,1,2,-1,5,-1,-1,1,0
67752914793,-10,-3,-3,-7,-1,-3,-3,-5
67752914793,16,1,4,-8,-1,-2,-1,4
67752923059,-41,-5,-4,10,3,2,3,11
67752923059,19,5,1,-8,-6,-3,-3,-14
67752929896,-2,-4,10,7,1,0,2,5
67752929896,-1,0,1,8,0,0,0,-1
67752945411,14,-2,-4,19,2,4,-6,15
67752945411,-13,-5,-2,-30,-5,-3,8,-16
67752952359,-20,-2,1,4,-1,0,5,-6
67752952359,10,1,-5,-5,-1,-1,-3,-3
67752959781,5,-3,1,2,3,2,-1,-6
67752959781,8,1,12,17,-1,-1,-1,14
67752974713,2,-1,-10,-5,-4,-2,-1,-19
67752974713,-19,-2,6,-6,-3,-2,-2,4
67752983003,14,7,-6,-4,-2,-1,-1,-1
67752983003,-16,-5,1,6,1,-1,2,-2
67752989725,23,1,-4,-12,-4,-1,-3,5
67752989725,1,0,-3,12,3,2,-1,8
67753005524,2,-2,4,-20,-4,-4,0,-6
67753005524,-3,-4,-4,-3,-1,0,-1,0
67753012327,-20,-2,-3,-6,-3,-2,-2,6
67753012327,26,-3,-5,-1,-2,-1,-1,-1
67753019888,4,0,-2,2,0,-2,0,0
67753019888,-15,-1,9,9,2,-2,-1,-16
67753034793,-2,-4,-16,-1,-2,-2,-6,2
67753034793,-11,-3,-3,-9,-2,-3,3,-5
67753042991,-3,-1,-8,-1,1,2,3,-1
67753042991,22,2,5,5,0,1,-3,12
67753049848,-9,0,2,-2,0,1,-2,2
67753049848,-10,1,-5,-1,0,1,-1,-4
67753065376,-1,-7,-2,-4,-2,-1,-2,-4
67753065376,-5,-2,-6,4,-3,-2,-2,6
67753072330,-4,-2,-2,-3,1,-2,-4,-7
67753072330,1,-4,-4,-2,-2,-1,2,6
67753079772,-13,-3,-1,-6,-2,-2,-5,-15
67753079772,-1,0,-1,3,0,1,1,2
67753094878,-5,-2,2,1,-1,-3,1,2
67753094878,-4,-2,0,-4,-1,0,-2,2
67753102865,0,0,0,3,0,-2,-1,-3
67753102865,2,-4,-3,2,-1,-2,-3,5
67753117342,3,-2,0,-5,-3,-1,2,5
67753117342,9,0,-2,1,0,-1,-3,-9
67753125595,1,1,1,-2,-5,-5,1,-5
67753125595,-5,-2,-4,0,11,8,3,3
67753140310,4,1,2,1,1,1,0,-6
67753140310,-2,-6,-4,-2,-2,-2,-2,2
67753141149,-2,-1,1,-2,-2,-1,-2,5
67753141149,-2,0,0,-2,-7,-5,-5,-2
67753154882,1,-2,1,0,0,1,2,-1
67753154882,-12,0,-2,-2,-1,0,0,0
67753163042,-7,-1,-2,-1,0,-1,-4,-7
67753163042,3,0,-4,1,-2,-3,0,3
67753177204,0,4,2,-2,-1,-2,-3,-5
67753177204,-4,-7,-2,-4,-1,-2,0,1
67753185521,4,1,0,0,0,0,0,1
67753185521,7,0,-1,0,0,0,-1,3
67753200590,-3,-1,1,-1,-2,0,-1,-5
67753200590,9,2,0,-2,-3,-3,-6,-21
67753201185,-2,1,0,0,0,2,2,3
67753201185,10,-2,-2,0,-1,-3,-2,6
67753214843,-2,-2,-3,-2,-1,-1,-1,-1
67753214843,-5,1,0,-1,0,0,1,6
67753223113,-4,-2,-2,1,0,0,-3,-9
67753223113,-6,-1,-2,-1,-2,-2,-1,-5
67753237426,3,-1,-1,-2,0,1,-1,4
67753237426,-11,-1,-1,0,-1,-1,-1,-2
67753246109,7,0,-2,-3,-3,-1,-1,2
67753246109,-5,-1,0,-3,-3,-1,-1,2
67753260596,1,0,0,1,3,1,-1,-2
67753260596,-8,-1,-1,-1,2,1,0,-2
67753261231,0,0,0,0,-1,-2,-1,0
67753261231,0,-2,-2,0,-3,-3,-3,-3
67753274906,3,-1,0,-2,-3,-3,-2,-3
67753274906,-18,-3,0,-2,-4,-3,0,-5
67753283047,14,-2,-1,-1,0,0,1,5
67753283047,14,-2,-3,-2,-1,0,-3,-13
67753297421,6,2,-1,-1,-1,-2,-1,2
67753297421,-14,-1,-1,0,-2,0,-1,5
67753305570,-9,-2,-2,0,-1,-2,1,-1
67753305570,-6,-1,-2,-1,-4,-3,-1,2
67753320588,3,0,-1,1,1,1,-1,-2
67753320588,5,-2,-3,-2,0,-1,-2,-3
67753321217,1,-1,-1,-2,1,0,0,3
67753321217,-5,-3,-3,-1,0,1,1,0
67753334916,3,1,2,-2,-3,-4,-1,-1
67753334916,1,-1,1,-1,0,1,-2,4
67753342939,-3,-1,1,-2,-1,0,-2,-2
67753342939,-4,-1,0,-1,-2,-2,-3,0
67753357434,-4,-2,-2,0,0,1,1,-2
67753357434,4,0,-1,0,-3,-1,-1,2
67753365587,-5,0,0,0,0,0,0,-2
67753365587,4,-1,0,-2,1,0,-3,-16
67753380399,-2,0,0,0,-1,-3,-2,3
67753380399,1,-1,1,0,0,1,0,-2
67753381370,-3,-2,-1,1,-1,-1,-2,14
67753381370,-17,0,-4,0,0,-2,0,-1
67753394900,11,-1,3,-1,-2,-1,-1,1
67753394900,-2,0,-1,-2,-1,-2,-2,-4
67753402869,-1,-2,-1,0,0,0,0,0
67753402869,-2,0,-1,0,0,1,2,6
67753417386,-7,-1,-4,-2,-3,-1,-1,-2
67753417386,-5,0,1,-2,-2,-3,-1,0
67753425580,1,0,-1,-1,0,-1,-3,-6
67753425580,0,0,0,0,-1,-3,1,2
67753440491,-7,-2,-2,-2,-3,-1,0,-5
67753440491,0,-1,0,-3,-4,-2,0,-1
67753441228,-3,0,-2,0,-3,-3,0,-1
67753441228,-2,0,1,0,2,0,-3,-7
67753454868,-6,-2,-2,-1,-1,1,0,4
67753454868,1,-1,-4,-4,-1,0,-3,-10
67753462998,1,-1,-2,-1,0,0,-2,-1
67753462998,1,0,0,1,-1,0,-1,6
67753477395,4,-2,-3,-2,-3,-2,-4,-4
67753477395,-11,-2,-1,1,-1,-1,-1,4
67753485429,-5,-2,-2,-3,-3,-2,-1,-5
67753485429,3,-1,-1,-1,-2,-1,-2,-4
67753499754,-7,-1,-1,0,0,-2,-1,2
67753499754,3,-1,-2,-1,-2,-3,-1,1
67753508707,-6,-2,-1,-1,0,0,-1,-5
67753508707,10,-1,2,0,-1,-1,-2,6
67753514836,-5,-1,0,0,-1,-1,-1,-1
67753514836,6,-2,-2,-1,0,-1,0,4
67753523629,1,-1,-1,0,-2,-2,-1,-3
67753523629,-7,0,-1,-2,-1,-1,1,-3
67753537350,-2,-1,-1,0,-1,0,1,-1
67753537350,3,0,0,0,-2,0,-1,-4
67753546256,-1,-2,0,-1,0,1,-1,-2
67753546256,-5,-1,0,-2,-2,0,2,0
67753559698,2,-1,-1,0,-1,-2,-1,-1
67753559698,-3,-2,-1,1,2,0,1,-1
67753568732,2,-1,-3,-4,-4,-4,-1,-2
67753568732,-2,-2,-3,-1,-1,-1,-2,0
67753574862,3,0,0,1,0,1,3,12
67753574862,-7,-5,-2,-1,-2,-3,-6,-33
67753583737,-4,0,-1,1,-1,-1,0,5
67753583737,0,-2,0,-1,0,0,0,1
67753597233,-5,-1,-2,-2,-2,-2,-1,0
67753597233,12,1,-2,0,1,1,-1,5
67753606198,-1,-2,-1,-2,0,-1,-3,-6
67753606198,-5,-1,-1,-1,0,-2,0,-1
67753619971,1,0,-2,-1,-1,0,0,-2
67753619971,-5,-2,-2,-1,-2,-1,3,4
67753628782,0,0,-1,-2,-1,0,-2,-4
67753628782,0,1,-2,0,0,-1,-1,3
67753634904,-3,-2,-1,-2,-2,-1,-3,-6
67753634904,1,0,-2,-1,-3,-3,0,4
67753643797,0,-3,-1,0,0,1,-1,-3
67753643797,-3,-1,-1,0,-4,-2,-1,0
67753657348,0,0,0,-1,-1,-2,-1,-3
67753657348,0,-3,1,0,-2,0,-2,2
67753666219,0,-1,-1,0,-1,2,0,-1
67753666219,0,0,-1,-2,-3,-2,-1,-2
67753679977,2,1,-1,-1,-1,-2,-2,-3
67753679977,0,-1,0,-1,-1,0,0,6
67753688746,3,-1,-1,-2,-1,-1,-1,11
67753688746,-6,-1,-1,-3,-3,-3,-5,-7
67753694714,0,-2,0,-5,-3,-2,-1,0
67753694714,-7,-2,-2,0,3,1,0,-2
67753703722,-4,0,-1,2,1,1,0,1
67753703722,8,-1,0,-1,0,-1,0,1
67753717257,-3,-2,-2,-1,-3,-2,-2,-5
67753717257,1,-1,-1,-2,-4,-4,-1,3
67753726253,0,-2,-1,-3,-1,-1,-1,-5
67753726253,-5,-1,-1,-2,-1,1,-1,2
67753739858,-4,-1,-2,-1,-2,-1,-2,-12
67753739858,4,1,0,-2,-2,-2,-2,2
67753748747,-4,-3,-3,1,0,0,-2,-4
67753748747,-1,-2,-1,0,1,1,0,-1
67753754859,-3,-2,-1,-1,1,0,-1,1
67753754859,-2,0,0,-1,0,-1,-1,2
67753763723,4,1,0,0,-3,-2,-3,-8
67753763723,-12,-4,-1,-1,-2,-2,-1,-2
67753777204,4,-1,0,0,0,1,2,4
67753777204,-1,-2,0,-2,-1,-1,0,6
67753793713,-9,-1,-1,-2,-2,-3,-4,-24
67753793713,4,1,-3,0,-1,0,-1,1
67753799665,-3,0,-1,0,0,1,-1,0
67753799665,0,-1,0,-2,-1,-1,1,1
67753808608,5,-2,-1,0,-2,-1,1,2
67753808608,-2,-1,-1,-2,-2,0,0,-2
67753814684,-2,0,-1,-2,-2,-3,-2,-2
67753814684,2,0,0,0,-1,0,-1,0
67753823708,2,0,-1,-2,-3,-5,1,3
67753823708,-4,0,-1,0,-1,-2,-2,-4
67753837182,14,-4,-1,1,4,2,0,10
67753837182,-6,0,0,0,2,4,1,-5
67753846141,5,-3,-2,-1,-3,0,-2,4
67753846141,1,0,-2,-3,-3,-4,-3,-6
67753859702,-14,-1,-1,-2,-4,-3,-1,-3
67753859702,0,-2,1,-1,0,0,0,-2
67753868723,-3,1,-2,-2,-1,-1,-1,1
67753868723,0,-1,-1,0,-1,-2,0,2
67753883531,6,1,0,0,0,0,-3,-2
67753883531,-11,-1,0,-1,0,-2,-3,-5
67753885134,1,-1,0,-1,0,-3,0,6
67753885134,1,-1,0,1,1,1,1,4
67753897188,2,-2,-1,-2,-2,-2,0,-5
67753897188,-11,-2,-4,-1,-1,-1,-1,-1
67753906190,-1,-1,-2,-2,-1,-1,0,2
67753906190,-4,-3,-1,0,-2,-1,1,-2
67753919656,-5,-3,-1,-3,-5,-4,-2,-6
67753919656,6,-1,-2,1,-1,0,-3,-2
67753928651,-3,-2,-3,0,3,2,-1,-2
67753928651,0,-1,0,-1,-1,0,1,-2
67753943719,-7,-1,-1,-2,-1,1,-3,0
67753943719,9,0,-1,-3,-3,-2,0,3
67753945187,-10,-1,1,0,0,0,-1,-2
67753945187,6,-1,-1,-1,-4,0,-1,-3
67753957417,1,-2,-1,0,-4,-2,0,1
67753957417,5,0,-1,-2,-2,-1,-1,0
67753966185,-6,-1,-2,2,3,3,2,-4
67753966185,-6,-2,-1,0,1,-1,-2,4
67753988802,0,0,1,-2,-2,0,-1,-1
67753988802,3,-1,0,-2,0,-1,-2,8
67753990238,-3,-1,0,-3,-4,-2,-1,-5
67753990238,1,0,0,0,-1,-2,0,-3
67754003696,-5,-2,-3,0,1,-1,0,0
67754003696,-5,-3,-2,-1,-3,-2,-4,-8
67754005199,4,1,-1,-1,-1,-2,-1,4
67754005199,0,-1,-1,-1,0,2,0,0
67754017435,-3,0,-2,0,2,1,-2,-1
67754017435,8,-2,-1,-1,1,-1,0,-1
67754026193,-7,-3,-1,0,-1,-1,-1,-2
67754026193,0,-2,-2,-1,-1,-2,-2,-4
67754040596,-1,-2,-2,-1,-4,-2,-2,1
67754040596,-3,1,-2,0,-3,-2,1,-7
67754047245,-6,0,-1,-3,-1,0,-3,-4
67754047245,13,0,-1,0,-1,0,-2,3
67754063536,0,-1,0,-1,0,0,2,0
67754063536,-10,-2,-1,-1,-1,0,0,-1
67754065167,8,-1,-1,-1,-3,-2,0,10
67754065167,-5,0,-1,0,-1,-1,-2,-2
67754077344,8,1,0,-1,-1,-2,0,4
67754077344,-9,-1,0,0,-2,0,-2,-10
67754086341,9,-1,-1,-1,0,-2,-1,9
67754086341,-4,-1,0,-1,1,1,1,-1
67754100636,1,-1,-1,-1,0,0,-1,-2
67754100636,-1,0,-1,0,1,-2,2,4
67754107413,2,-1,-1,0,-1,0,-2,-6
67754107413,-4,0,-2,-3,-2,-3,-1,-1
67754123728,-6,0,-1,0,-1,0,-2,-5
67754123728,2,-2,0,-1,-3,-3,-3,0
67754125229,8,-1,-2,0,-1,-1,1,-5
67754125229,-2,-2,-2,-1,-1,0,1,-1
67754137467,-3,-1,-2,0,-1,-1,-1,1
67754137467,2,-2,0,-2,0,-1,0,-1
67754146296,-4,-2,-1,-1,-3,-3,-2,-8
67754146296,-9,-1,-3,-4,-1,-3,-1,-1
67754160578,8,-2,-1,-1,-2,-1,1,4
67754160578,-6,-2,0,0,-1,0,0,-1
67754167348,-1,0,-1,0,-1,1,-1,-8
67754167348,-13,-1,0,-2,-1,-2,-1,-1
