timestamp,emg1,emg2,emg3,emg4,emg5,emg6,emg7,emg8
67542385083,-1,0,2,4,2,1,0,0
67542385083,0,-1,-2,-2,-1,-3,-1,-1
67542385890,0,-3,-2,-1,-3,-2,-5,-3
67542385890,-1,-1,-1,-1,3,3,7,0
67542386648,1,-1,-2,-1,-2,-2,-1,0
67542386648,-1,-2,0,2,-1,-2,-1,-2
67542387542,-2,-2,-1,-1,2,2,0,0
67542387542,-1,0,-3,-2,-3,-2,-3,-2
67542398072,0,-1,-2,-3,-2,0,-2,-2
67542398072,0,0,-3,-2,-2,0,0,0
67542407476,1,-3,0,0,-1,-2,-3,-1
67542407476,-1,-2,-3,0,0,-2,2,1
67542412986,-2,0,-1,-2,0,-2,-4,0
67542412986,-2,-1,1,-1,-2,0,-3,-3
67542428699,-1,-1,-3,0,1,-2,-1,-2
67542428699,1,-2,1,1,0,1,3,-1
67542436879,0,-2,-2,-2,-4,-5,-4,-1
67542436879,0,-2,-1,2,3,0,-3,-1
67542443036,-1,0,-1,-1,-2,0,4,1
67542443036,-2,0,-1,-3,-3,-1,-3,-3
67542458285,-1,-2,-3,-3,-1,-1,3,-1
67542458285,1,-1,-2,-1,-1,-2,-3,-1
67542466563,0,-2,0,-1,-3,1,0,1
67542466563,-2,-1,0,-1,-1,-1,-4,-1
67542506243,-1,-2,-1,0,2,1,0,0
67542506243,-1,0,-1,-1,-1,-1,-1,-2
67542507130,-1,-3,-1,-1,-4,-3,0,-2
67542507130,-1,-1,-2,0,0,-1,0,-1
67542507931,-1,-2,-2,-2,-1,-2,0,-1
67542507931,0,-2,-1,-1,-1,0,0,0
67542511107,0,1,0,-2,3,-1,-2,-1
67542511107,-1,0,-1,-1,0,0,1,-1
67542517996,-1,-1,1,-1,0,-1,-2,-2
67542517996,-1,-1,-3,0,-1,0,1,0
67542526149,-1,-2,-1,-1,-3,-3,-2,-2
67542526149,-2,-2,0,-2,-2,-3,-2,-1
67542532944,-1,0,0,1,-1,-1,0,-2
67542532944,1,-1,-1,-3,-1,0,2,0
67542548468,-1,0,0,0,1,0,0,1
67542548468,-1,1,-1,-2,-2,-2,-2,-1
67542555506,1,1,-2,0,-3,-1,0,-1
67542555506,-1,0,0,0,0,-1,-2,-1
67542562784,0,-3,-2,-3,-2,-1,1,-2
67542562784,-1,-2,-3,0,2,4,-2,0
67542577871,0,-1,-1,-1,-3,-4,-4,-4
67542577871,-1,-1,-1,0,1,-1,-1,0
67542586177,0,-1,-1,-1,-1,0,-2,-1
67542586177,0,-1,-1,1,0,0,0,0
67542592764,-3,-2,0,-1,-1,-2,-3,0
67542592764,-1,-2,1,2,0,1,1,-1
67542608540,0,1,1,-1,-2,-3,-3,-1
67542608540,-1,-2,-2,-3,-3,-4,-5,-3
67542615505,2,0,-2,1,-2,-1,1,-1
67542615505,-1,0,-1,0,3,3,1,0
67542622972,0,0,-1,-1,-3,-4,-3,-1
67542622972,-2,-1,0,0,2,0,1,-1
67542637948,0,-1,0,-1,0,0,-4,1
67542637948,0,-2,-3,-3,-3,-4,-3,-2
67542646228,0,-1,-1,1,2,1,1,-1
67542646228,-2,0,1,-2,-2,-2,-2,-2
67542652876,-3,-2,-3,-3,-1,-2,-3,0
67542652876,-1,1,0,0,1,-1,-1,-1
67542668782,-1,-2,-2,0,0,2,0,0
67542668782,0,-3,0,-1,-3,0,5,0
67542675285,1,-1,-1,-2,-4,-2,-2,0
67542675285,-1,-2,2,0,-4,-2,-3,-4
67542682952,-2,-2,-1,-3,-1,-1,0,-1
67542682952,-1,0,-1,0,-2,1,-4,-2
67542697960,-1,1,1,-1,1,-1,0,-1
67542697960,-1,-2,-1,-3,2,1,3,0
67542706152,-2,0,0,-2,0,-3,-8,-3
67542706152,-2,-3,-2,-1,0,-2,-2,-2
67542712861,-1,0,-2,-1,-2,0,-1,-2
67542712861,-1,0,-1,-2,-4,-5,-1,-2
67542728534,-1,-1,-1,2,-2,-1,0,0
67542728534,-1,-2,2,0,0,-2,-1,1
67542735248,0,-1,-3,-3,-2,1,3,-2
67542735248,-1,-2,-1,-3,-3,-1,-2,0
67542742764,-2,-1,-1,-2,-1,-1,0,-3
67542742764,-2,0,0,-1,-2,-2,0,0
67542757844,-2,-4,-3,-1,-2,-2,-2,-2
67542757844,0,-1,-1,0,-2,-1,1,1
67542766031,-2,-2,-2,0,-3,-1,-2,-1
67542766031,0,-2,-1,0,1,1,2,1
67542772969,-2,-2,1,-2,-1,-2,1,-1
67542772969,-2,-3,-4,-3,-2,-2,-7,-2
67542788684,-1,0,-1,0,5,2,3,0
67542788684,-1,-1,-1,-1,1,-2,-5,0
67542795300,0,2,0,0,-1,1,2,0
67542795300,0,-2,-2,0,-2,-4,-2,-1
67542802768,1,-1,-4,-2,-1,-3,-2,-2
67542802768,-1,1,1,0,0,0,-3,-1
67542817933,-1,0,0,-1,0,-2,-2,-2
67542817933,0,1,0,1,1,1,-1,0
67542826173,-1,1,0,-3,-2,-1,-2,0
67542826173,-1,-3,-4,-3,-4,-3,0,-2
67542832805,-2,-1,-2,0,-1,-2,-2,-1
67542832805,-1,0,0,-1,-1,0,1,-1
67542848707,-2,-2,1,1,-1,0,4,-1
67542848707,0,1,-2,0,-3,-1,-7,-3
67542855536,-2,-2,-2,-3,-2,-2,1,-2
67542855536,-1,0,0,0,0,1,-1,-2
67542871204,1,-2,0,-2,-2,-2,0,-2
67542871204,-1,-3,0,-2,0,-1,1,-2
67542877943,0,-1,-2,-2,-1,-1,-2,1
67542877943,-1,-1,-2,-2,-1,-2,-3,-1
67542894374,-3,0,-2,0,0,-1,-2,1
67542894374,-1,0,-1,-1,-2,-2,-1,-1
67542895779,-2,-2,0,1,0,1,-1,0
67542895779,0,0,0,-2,-2,-3,-1,-3
67542908776,-3,1,-3,-3,-3,-1,-2,-2
67542908776,-2,-1,0,-1,-2,-2,1,0
67542915442,0,0,0,1,2,3,-1,-1
67542915442,0,2,-2,-1,-3,-2,4,0
67542931093,0,-2,0,1,1,1,-1,-2
67542931093,-1,-2,-1,-4,-4,-3,0,-2
67542937922,-3,0,0,-1,-1,-3,-3,0
67542937922,-2,-3,0,0,1,-1,-2,-2
67542946151,0,-2,-3,0,-4,-1,-4,-2
67542946151,0,-1,0,1,0,1,-1,-1
67542952947,1,-1,-2,-4,-4,-2,-1,-1
67542952947,-2,-2,-2,-2,-1,-1,-3,-1
67542968699,0,-1,0,1,0,0,-1,-1
67542968699,-1,0,0,0,0,-1,0,-1
67542975320,-2,0,-2,0,2,0,-2,0
67542975320,0,-4,-2,0,-1,1,1,-1
67542991143,0,-2,-2,-5,-6,-4,-9,0
67542991143,-1,1,-1,1,4,3,3,1
67542997931,0,-2,1,1,2,1,-2,-1
67542997931,-1,-1,-2,-2,-1,-2,-3,-1
67543006150,-1,-1,-1,1,2,3,2,-1
67543006150,-1,-2,-1,-2,-2,-6,-6,-1
67543012957,-3,1,0,0,-2,1,0,0
67543012957,-1,-1,-1,0,-1,-2,0,0
67543028768,-1,0,-1,0,1,-1,2,-1
67543028768,1,0,-1,-2,0,-1,1,-2
67543035258,0,-3,-3,-3,-3,-3,-1,-4
67543035258,-1,-2,-1,-1,-2,-2,-3,0
67543051136,0,-2,-1,-1,-2,0,-2,-1
67543051136,0,0,0,-2,-4,-1,-1,-1
67543057903,1,1,-2,0,-2,-3,-1,-1
67543057903,1,1,1,0,1,-1,1,-1
67543066032,-1,-2,-2,0,3,0,0,0
67543066032,-2,-2,0,-2,0,2,0,1
67543072897,0,-1,-1,-3,-4,-4,-2,0
67543072897,-1,-1,-2,0,-1,2,-3,-1
67543088718,-2,-2,-2,-3,-5,-3,-2,-1
67543088718,-1,-2,-2,-2,-2,0,4,0
67543095437,-1,-1,0,1,3,2,1,0
67543095437,-3,-1,-1,-2,0,-2,-3,0
67543111129,-1,-3,-1,0,1,2,3,1
67543111129,0,-1,0,-2,-2,-3,-5,-2
67543118021,-2,-1,-1,0,-1,-1,-1,1
67543118021,0,0,-1,-2,-3,-2,-3,-1
67543126142,1,0,-1,-1,-3,0,3,-1
67543126142,-1,0,-1,1,-1,0,2,-1
67543132888,-1,0,-1,-1,0,-1,0,-1
67543132888,0,-1,-1,-1,-2,0,-2,-2
67543148481,-2,0,1,-1,-1,-1,-6,-1
67543148481,-2,-1,-1,1,0,0,-2,0
67543155497,0,-3,-3,-3,-2,-3,1,0
67543155497,-1,0,1,0,1,0,-1,-2
67543171245,0,-2,-1,-1,-3,-1,-2,0
67543171245,0,-2,-2,0,2,0,0,0
67543177983,0,-3,0,0,-1,1,-3,-3
67543177983,-1,-1,-1,-1,-1,-1,-4,0
67543186038,-3,-1,0,-1,0,-2,1,-1
67543186038,-1,-1,-1,-1,-1,-1,-4,-2
67543200451,-1,0,-4,-2,-3,0,2,-3
67543200451,-2,0,-2,-1,-2,0,1,-1
67543208652,-1,0,2,-1,-1,-3,-1,-1
67543208652,0,-1,-11,-5,-3,-2,-1,2
67543215357,-2,0,9,12,2,0,-3,-6
67543215357,-2,0,2,5,1,-2,2,-2
67543231909,0,-1,-18,-18,-3,-1,-8,-1
67543231909,1,0,-2,-3,-1,-3,0,0
67543237969,1,1,7,11,4,3,-1,0
67543237969,-8,-2,0,3,-1,-1,0,-1
67543246870,-3,-2,10,11,1,-2,0,0
67543246870,2,0,-8,-3,-2,-4,-6,-1
67543260635,-9,2,-3,-9,-1,2,2,-6
67543260635,2,-8,-5,-19,-12,-5,-2,0
67543269274,4,6,20,9,0,-2,-3,-7
67543269274,-1,-5,-15,-2,2,5,1,-1
67543275321,-12,-4,4,8,4,1,3,2
67543275321,16,6,1,0,1,0,1,5
67543291846,-16,-5,-5,-12,-1,-1,1,-2
67543291846,-2,3,19,16,2,-2,-2,-2
67543298069,5,4,6,-4,-2,-2,-2,1
67543298069,-5,-3,-19,-11,-2,0,0,-5
67543306840,2,-2,1,4,-4,-4,-3,0
67543306840,0,-2,13,-3,1,3,1,2
67543320373,0,-2,0,8,-2,-6,-3,2
67543320373,-1,1,7,-1,4,1,0,0
67543329396,0,-1,-5,6,-1,-2,1,0
67543329396,-3,-2,-7,-14,-4,0,-4,0
67543335502,5,-2,-9,-12,-7,-3,-2,0
67543335502,-3,-1,2,3,-2,-2,-2,-4
67543351894,2,-3,-2,-6,-1,0,1,-4
67543351894,3,-2,-17,-10,-9,-7,-2,-4
67543358017,4,-5,0,-3,-3,-2,-3,2
67543358017,-4,0,-11,8,3,1,0,1
67543366847,-11,-5,11,0,-2,0,-1,-8
67543366847,13,3,0,4,1,-2,-3,5
67543380342,-1,-1,-9,-14,-3,-3,-1,-2
67543380342,1,-1,9,8,-1,-2,-2,0
67543389325,-8,-1,-2,-6,-2,1,2,6
67543389325,-12,1,2,-2,-3,-2,-1,-19
67543395384,-7,0,3,0,0,-1,-2,-2
67543395384,5,0,-9,1,2,0,1,4
67543411821,5,4,-9,2,-2,-1,-1,3
67543411821,-2,0,8,1,-2,-1,-2,2
67543417752,0,-15,-17,-1,-1,-1,-1,1
67543417752,-1,0,-1,-4,-1,-2,-3,-5
67543426882,2,-1,-11,-5,-1,-2,-3,1
67543426882,-5,0,13,6,1,-1,0,0
67543440347,-1,2,-10,-4,-1,-1,0,-1
67543440347,0,-4,20,9,-3,-3,-2,2
67543449373,2,-1,-7,-5,0,-1,-1,-6
67543449373,-7,-5,9,2,-1,-3,-2,-1
67543455492,1,2,10,2,-4,-2,1,0
67543455492,0,-6,-8,-3,3,1,0,-4
67543471786,2,6,18,12,4,2,2,1
67543471786,0,-2,-26,-20,-4,0,-1,5
67543477945,0,1,-1,-4,0,-1,-1,-3
67543477945,-4,2,-2,-7,-9,-6,-4,-2
67543492787,0,0,-2,0,3,3,4,0
67543492787,1,-3,-5,4,2,1,-1,0
67543500234,-1,-2,5,3,0,-1,-1,1
67543500234,-1,2,-11,-7,1,3,2,0
67543515917,0,-3,3,0,-2,-6,-6,-1
67543515917,0,-2,-4,0,-3,-1,-1,-4
67543516725,0,-1,-17,-6,-3,-2,-1,1
67543516725,1,4,4,-3,0,-3,0,-3
67543538409,-2,-10,5,3,-1,0,-1,1
67543538409,-4,3,-1,0,1,1,1,1
67543539189,4,-1,-9,1,0,-1,0,1
67543539189,-5,0,-7,-6,-2,-1,-2,-8
67543552753,-1,-3,9,1,0,0,0,-1
67543552753,-2,3,-1,2,0,-3,-2,-1
67543560281,-3,-4,-17,-8,-1,-1,-2,-1
67543560281,-1,2,14,5,0,0,-1,3
67543575971,1,-1,-10,-4,-3,-2,-1,0
67543575971,3,-1,4,5,-1,-2,2,-2
67543576694,-2,1,7,0,2,1,1,-3
67543576694,-2,-3,-4,4,-2,-2,0,-1
67543591854,1,-1,-8,3,-2,-1,-1,-1
67543591854,0,-3,4,-4,-2,0,0,0
67543597915,4,9,13,1,1,2,0,0
67543597915,-10,-10,-21,-7,-2,-3,-4,-6
67543612902,1,0,-2,-1,-2,-3,-2,1
67543612902,0,-1,0,0,0,1,-2,-1
67543620322,-4,2,12,5,2,0,0,-1
67543620322,-5,-11,-1,1,0,1,1,-1
67543636035,13,5,0,0,0,-2,0,1
67543636035,0,-8,-10,-4,-3,-4,0,-2
67543636844,-20,-3,3,3,-4,-3,-2,-7
67543636844,12,2,4,0,1,0,1,3
67543651748,-4,1,-12,-12,-6,-5,-3,-4
67543651748,1,-2,12,3,5,4,2,3
67543657804,1,-4,-4,-1,0,2,0,-1
67543657804,-5,0,8,1,-2,-3,-1,-2
67543672780,-5,-4,-11,-4,-1,-1,0,-2
67543672780,0,2,1,3,0,-1,-2,-1
67543680362,2,-3,0,-4,-2,-2,-3,0
67543680362,-8,7,8,0,-2,-1,-3,0
67543695965,12,-1,0,-1,0,1,1,2
67543695965,-7,-3,0,1,-3,0,-2,-2
67543696811,1,-5,-10,-4,-1,-1,-1,1
67543696811,3,0,5,-1,-2,1,-1,2
67543711790,-3,-3,-7,-6,0,0,-1,-1
67543711790,-3,-1,5,-3,-1,-2,-1,-3
67543717843,0,-8,-3,0,-2,-2,-1,-1
67543717843,2,-2,-3,0,0,1,-1,1
67543732925,-17,1,4,0,2,1,-2,-4
67543732925,0,-3,-2,1,1,2,2,0
67543740309,0,2,0,-3,-2,-3,-1,1
67543740309,3,-4,-6,-3,-4,-6,-5,-8
67543755948,0,-2,-4,1,1,3,2,3
67543755948,2,1,-2,0,-1,-1,-6,-5
67543756679,-4,5,12,0,0,-1,1,-2
67543756679,-5,-7,-9,-1,0,-1,1,1
67543771746,-1,-1,2,-3,-4,-4,0,-3
67543771746,3,1,-2,-2,-1,-2,1,2
67543777730,2,5,-1,2,0,0,-1,1
67543777730,-5,-5,-9,-7,-4,-3,-1,-2
67543792778,1,5,3,1,2,-1,1,0
67543792778,-6,-7,-4,-3,-1,0,1,1
67543800226,1,-4,-3,0,-1,-3,-3,-4
67543800226,2,5,4,2,2,-1,0,-1
67543815958,-1,-2,-1,-1,-4,-2,-4,-1
67543815958,0,0,-4,-2,0,0,2,1
67543816748,-2,5,3,2,5,5,2,-3
67543816748,3,0,2,0,-1,-1,-3,5
67543831786,7,-2,-3,0,-2,0,-1,2
67543831786,-2,-1,1,-1,-5,-5,-4,-2
67543837775,2,-6,-5,-3,-3,-1,-1,0
67543837775,-4,4,5,0,2,0,-1,0
67543852779,-4,-2,2,0,-3,-3,0,-2
67543852779,1,2,-1,-3,-2,-2,-2,-2
67543860283,1,1,-1,-1,-2,0,0,0
67543860283,-3,-5,2,-1,0,-1,-2,-1
67543875967,-3,-3,-2,-2,-3,-2,-3,-3
67543875967,0,-1,0,0,-2,0,-2,1
67543876809,-4,0,-3,-5,-2,0,0,0
67543876809,7,3,4,3,4,4,1,-2
67543891766,-9,5,4,-1,-3,-2,0,2
67543891766,0,-9,-5,1,1,2,1,1
67543897770,-1,-4,-2,-3,-3,-4,-4,0
67543897770,-1,-2,-3,-2,-4,-1,0,-1
67543912981,3,0,1,0,-2,-1,2,-2
67543912981,-4,1,-2,-3,-2,-3,-8,0
67543920519,-2,0,3,-2,0,-1,-3,-4
67543920519,1,-3,-3,-2,-1,1,1,3
67543936180,-2,0,-3,-3,0,-2,-5,-4
67543936180,-2,0,1,-2,-4,-3,0,-2
67543936770,1,0,-14,1,5,5,3,-4
67543936770,-3,0,10,0,-4,-3,-1,7
67543951816,5,-5,-4,-1,0,2,2,4
67543951816,-5,0,0,1,2,1,0,-7
67543957842,-2,-5,2,-2,-5,-6,-1,0
67543957842,2,0,-16,-4,-3,-1,-1,-4
67543972776,-4,0,4,1,2,0,0,1
67543972776,2,2,10,1,-2,-4,-1,0
67543980513,0,-3,-8,-2,-3,-2,-1,0
67543980513,-3,-3,0,-2,-3,-1,-2,-4
67543995941,-1,-3,-5,-2,-2,-2,-2,-1
67543995941,2,-1,-2,-2,-1,1,3,-1
67543996727,-4,1,5,-1,-1,1,-1,1
67543996727,-2,-3,-1,-2,-1,-2,-2,-1
67544011910,0,-2,-6,-1,0,0,-2,-1
67544011910,-2,3,0,-3,-2,-2,-1,-1
67544017928,1,-3,1,0,-1,-1,-2,0
67544017928,-1,-1,-4,0,3,2,0,-1
67544032964,-1,1,-1,0,0,0,0,-4
67544032964,0,-2,-6,-1,-3,-3,-2,-2
67544040503,0,-7,1,-1,-3,-5,-3,0
67544040503,-2,-2,-2,0,0,0,-1,-4
67544056107,-1,-3,1,-2,2,3,2,-2
67544056107,-1,-1,-2,-1,-2,-2,-1,0
67544056825,0,3,2,-1,-1,1,-1,1
67544056825,-2,0,1,-2,-3,-2,-2,-2
67544071867,-3,0,2,-1,-1,-3,-2,0
67544071867,-1,-1,-6,0,-1,0,0,1
67544078020,0,-2,6,-2,-2,-2,-1,-1
67544078020,-1,-1,0,1,4,4,0,1
67544092959,-1,-2,4,-2,-1,0,-1,0
67544092959,0,0,-13,-1,1,0,0,0
67544100509,1,-2,3,1,-2,-3,-3,3
67544100509,-5,-2,-16,-4,-5,-4,-2,-8
67544115405,1,0,4,1,-1,1,-1,-1
67544115405,-1,-1,3,1,0,2,0,-2
67544122949,-2,-1,-5,-2,-1,0,-1,0
67544122949,2,0,2,-1,-1,-2,-1,1
67544131813,-1,-6,-7,-1,-1,-2,-3,-2
67544131813,-1,-1,1,-1,-1,-4,-2,-3
67544137914,0,0,-2,0,-1,-1,-1,-3
67544137914,-2,1,1,-2,-1,-1,1,0
67544152983,-1,0,-3,-2,-3,-1,-2,-4
67544152983,-1,-5,-7,-1,0,1,-1,-1
67544160510,1,-3,0,-1,0,-1,-2,-1
67544160510,-1,-1,3,-1,-1,-2,-2,1
67544175430,0,0,-4,-1,-2,-1,-2,0
67544175430,-2,-4,3,-2,-2,-2,0,-1
67544182831,0,2,-1,0,-3,0,-1,-1
67544182831,0,-1,0,-1,-1,-1,-1,1
67544191906,-5,-3,-14,-1,-1,-1,-1,-6
67544191906,0,0,7,1,-1,-1,-1,1
67544197867,-1,-1,-5,-1,1,1,-1,-2
67544197867,0,-3,3,0,-1,-2,-1,1
67544212846,1,0,-2,0,0,-1,1,0
67544212846,-3,-1,6,-1,-1,0,-2,1
67544220519,-3,-1,-4,-3,-3,-2,-3,-2
67544220519,-1,-3,2,-2,-4,-2,-1,-3
67544235513,-3,-2,2,1,0,-1,0,-1
67544235513,2,-1,-5,0,2,1,1,4
67544243667,2,1,1,-3,-1,-2,0,0
67544243667,-1,1,2,-2,0,-3,-2,-1
67544250493,0,-2,1,-3,-3,-3,-4,0
67544250493,-2,-2,-2,-1,-3,-2,-2,-2
67544257969,-1,-1,0,0,3,1,1,1
67544257969,0,0,-3,1,-1,0,-1,0
67544272822,-2,0,0,-3,1,-1,0,0
67544272822,-6,-2,-1,-2,-4,-2,-4,-4
67544280438,-1,-1,5,-2,-2,-3,-2,-1
67544280438,-1,-3,-14,1,-1,2,-1,-3
67544295447,0,1,2,-1,-1,-1,-1,1
67544295447,1,0,1,-3,0,-2,1,0
67544303553,-1,1,0,1,-2,-1,0,-2
67544303553,-1,-1,1,0,-3,-3,-2,-2
67544318652,0,-1,-2,0,-1,0,0,0
67544318652,0,-2,-6,-3,-1,-2,-1,-1
67544319297,0,-2,-4,0,0,0,-1,0
67544319297,-2,-1,1,-2,2,0,-1,-2
67544333040,1,-3,-1,-1,-2,-1,0,1
67544333040,1,0,-1,0,-2,0,0,0
67544340327,-1,-2,-1,-1,-1,0,-1,-2
67544340327,-1,0,-2,-3,-2,0,1,0
67544355449,1,1,0,-1,0,0,-1,-2
67544355449,-2,0,-2,-2,-1,-1,0,-2
67544363814,0,-3,-4,1,0,2,1,1
67544363814,-3,-1,0,0,-2,-2,0,-1
67544378725,-1,-2,-2,-2,-1,0,-1,-1
67544378725,-1,0,-1,-2,-2,-3,-3,-1
67544379263,-1,-3,-4,-2,-1,-1,-2,-1
67544379263,-1,-2,-1,0,1,3,0,-1
67544393007,-3,-1,1,0,-1,0,-2,-1
67544393007,0,1,8,1,-1,-1,0,-1
67544400387,0,0,0,0,0,-1,-3,-2
67544400387,2,1,0,-2,-2,-1,-2,0
67544415484,-1,-2,-2,-3,-2,-2,-2,0
67544415484,0,0,-1,-3,-1,-1,-4,-2
67544423615,0,-1,3,-2,-2,-1,0,1
67544423615,-3,0,-1,-1,0,1,-1,-1
67544438513,0,1,2,1,1,-1,-1,-2
67544438513,-1,-1,-3,-1,-1,-2,-2,-2
67544439340,-2,0,-3,-1,-2,-1,-2,-3
67544439340,-2,1,1,-1,0,1,0,-2
67544452965,-2,-1,-2,-1,1,0,-2,-1
67544452965,1,0,-5,-2,0,0,-2,2
67544460548,-2,-1,-4,-2,-2,-3,-2,-5
67544460548,1,-3,0,-2,-2,-2,0,0
67544475501,0,-2,1,-1,1,1,1,0
67544475501,-3,-4,-3,0,-1,-1,-1,-2
67544483705,-2,0,0,-2,-2,0,-1,0
67544483705,-1,-4,-3,-1,-1,-3,-2,0
67544498623,-2,1,-1,-2,-2,-2,-1,-1
67544498623,0,0,-4,-1,-2,-1,0,0
67544499292,-1,0,1,-1,-1,-2,-1,2
67544499292,0,1,4,1,2,1,-1,-2
67544512754,0,-4,-11,-1,-2,-1,-1,0
67544512754,-1,-2,-1,-3,0,-1,-1,-2
67544520542,-1,0,3,1,-2,-3,1,-1
67544520542,-3,-5,-14,-2,-3,-2,-2,-2
67544535465,-1,-2,6,-1,-1,-2,-1,-3
67544535465,-2,-3,-1,2,1,0,0,4
67544543574,-1,-1,-1,-3,-2,0,-1,-2
67544543574,0,-2,2,-1,2,0,-2,1
67544558534,-1,1,0,-2,-1,-1,-1,-1
67544558534,-1,-2,-3,-3,-4,0,1,0
67544559390,2,1,-1,-3,-7,-2,-1,1
67544559390,1,0,2,6,6,-2,-3,1
67544572930,-3,-2,-1,-4,-4,-1,-1,-4
67544572930,0,-1,0,1,1,2,1,-1
67544580583,-2,-2,-2,-7,-10,-1,-2,-2
67544580583,2,1,0,-3,-2,0,0,-2
67544595535,-4,-2,-2,1,1,-2,-3,-1
67544595535,-2,-1,-1,-2,-4,-2,0,-2
67544603748,1,0,-1,2,6,1,0,1
67544603748,-1,-2,-2,-1,-5,0,1,-2
67544618689,2,-1,-1,2,1,1,1,1
67544618689,0,-3,0,1,-2,-1,-2,1
67544619302,-2,-1,-6,0,1,0,-1,-1
67544619302,-1,0,7,-1,-2,-2,-1,0
67544633010,0,2,3,-2,-4,0,-1,-1
67544633010,-1,-2,0,-1,1,0,1,-1
67544640579,2,-1,-2,0,3,0,-2,0
67544640579,-2,0,-1,-2,-5,-4,-3,-2
67544655573,-1,1,5,-2,-3,-2,1,-1
67544655573,-2,-1,-1,-2,0,-3,-3,-3
67544663546,-3,-1,0,1,-1,0,2,-2
67544663546,0,-2,-2,-1,1,1,-1,-1
67544678686,-2,-2,-3,-1,-2,-4,-3,-3
67544678686,-1,2,1,0,0,-1,-3,-2
67544679224,0,-2,-2,-1,-1,-2,-1,0
67544679224,-1,0,-2,1,1,0,0,0
67544692990,-1,-2,-2,0,-1,1,0,-1
67544692990,0,-2,-2,-1,-2,-1,1,-1
67544700466,-3,-1,-2,1,1,-1,-3,-2
67544700466,-1,0,0,-3,-3,0,-1,-1
67544715376,-1,-1,-2,0,-1,0,2,3
67544715376,-2,0,0,-1,-3,-1,-1,-1
67544723698,0,0,-1,-1,-3,-1,0,-1
67544723698,-1,-1,-3,0,-3,-3,-3,-4
67544738720,2,-1,-3,-1,-3,-2,0,-1
67544738720,-1,-1,-3,0,0,1,-1,0
67544739269,-2,-4,-1,2,3,-1,0,-1
67544739269,-2,-3,-1,-3,-1,0,-1,0
67544752882,0,1,-1,-1,-1,-1,-1,-1
67544752882,-1,-2,-1,-1,0,-1,-3,-1
67544760396,1,-1,-1,-1,-1,-1,-2,-3
67544760396,0,0,-1,-2,0,0,0,0
67544775537,-2,0,-1,-1,2,0,0,0
67544775537,-1,-2,-1,-1,-1,-1,0,0
67544783530,0,-1,-1,-3,-1,0,1,3
67544783530,-1,-2,-1,-1,-5,1,1,0
67544798726,-1,-2,0,11,8,1,0,0
67544798726,-2,-1,-2,1,0,-1,-2,-2
67544799356,-2,-1,1,0,-2,-2,-3,-1
67544799356,-2,0,-2,-5,-6,-3,-2,1
67544812966,-1,-1,-1,-7,-3,-3,-4,0
67544812966,-1,0,-4,3,3,3,2,0
67544820487,0,-1,-1,-2,-1,-3,-2,-1
67544820487,0,-2,1,2,3,0,0,-1
67544835314,-3,-1,-3,-2,-4,-3,-2,-1
67544835314,-1,0,-1,-3,-2,-2,-3,0
67544843796,-2,1,-1,-1,-2,0,-1,1
67544843796,0,-1,-2,-1,1,-3,-1,-3
67544858482,1,-2,-1,0,0,0,-1,0
67544858482,1,-2,-1,-3,-3,-1,0,-1
67544859211,-2,-3,0,1,0,1,-1,-3
67544859211,0,0,-2,0,-3,-2,-3,1
67544872825,-1,-1,-2,-2,-2,0,-2,-1
67544872825,0,0,0,0,0,-3,-2,-1
67544880362,0,-1,-1,0,0,-1,0,0
67544880362,-1,-3,-2,-2,-2,0,0,-1
67544895508,0,-1,-1,1,2,2,0,1
67544895508,-3,0,-1,-3,0,1,0,-1
67544903662,-1,-3,-2,-2,1,-2,0,0
67544903662,-1,1,-2,-2,-3,-2,-2,-2
67544918490,-2,-2,-2,-6,-5,-2,0,0
67544918490,-2,-1,-1,7,-1,-2,-1,-1
67544919407,1,0,0,0,-2,-2,-2,1
67544919407,-1,0,0,-3,-1,0,1,0
67544933058,0,-2,0,-1,-1,0,0,-1
67544933058,-1,-1,-1,-1,-1,-3,-1,1
67544940506,-1,-1,-1,-3,-2,-2,0,-2
67544940506,-1,-1,0,0,2,1,0,1
67544955520,-1,-2,-1,1,-3,-2,-1,-2
67544955520,-2,-3,-1,-2,1,2,-1,-1
67544963727,-2,0,-2,0,-3,-1,1,-2
67544963727,-1,-2,-1,-1,-1,-2,-2,-2
67544978535,-1,-1,0,-4,-4,-3,-1,-2
67544978535,0,0,-2,-1,0,1,1,-1
67544979277,-1,0,-2,-1,0,-1,-1,-1
67544979277,-1,0,-1,-1,-2,-2,0,-1
67544993039,-1,-1,0,0,-2,-1,-3,-2
67544993039,0,-1,0,-2,-3,-2,0,-2
67545000387,-2,-3,-1,0,-1,2,0,-2
67545000387,-1,0,-1,-1,0,0,-2,-1
67545015524,0,0,-1,-2,-1,0,0,-2
67545015524,0,-1,-1,-3,-1,-2,-3,-1
67545023409,-1,-2,1,9,1,-2,0,0
67545023409,-2,-3,-3,-4,0,-1,0,-2
67545038638,0,1,-2,-1,-6,0,-1,0
67545038638,-2,-1,-1,-6,4,0,-1,-1
67545039288,-2,-1,-1,-3,-2,-3,-1,-3
67545039288,-1,1,-1,6,-1,-4,-3,0
67545052962,-1,-2,-3,-3,-1,-1,1,0
67545052962,0,-1,0,-2,-9,0,0,0
67545060516,0,0,0,8,21,3,1,1
67545060516,-2,-1,0,-1,-4,-4,-1,0
67545075376,-2,-1,1,0,1,1,-2,-1
67545075376,0,-1,0,2,-6,0,1,0
67545083630,0,-1,-1,-4,-6,-2,-1,-2
67545083630,-1,-1,-1,-1,-2,0,0,0
67545097868,-1,-1,-1,1,1,-3,-2,0
67545097868,-2,-3,-2,-1,-1,1,-1,-2
67545106061,-1,-1,-1,-4,-1,1,0,-1
67545106061,-2,-2,-1,4,7,0,0,0
67545112785,0,-1,0,-3,-5,-4,-1,-2
67545112785,-1,-1,-2,-1,-2,-3,0,0
67545120294,-3,-2,-4,-1,-2,0,-1,-1
67545120294,-2,-2,0,-1,-7,0,-1,-2
67545135446,-2,-1,-1,-1,0,1,0,-1
67545135446,-1,0,-1,-1,-1,-4,-3,-2
67545143751,0,0,0,-4,-3,-1,0,-3
67545143751,-1,-1,-1,-2,0,0,0,-1
67545157945,-2,-2,-2,1,-1,-1,1,0
67545157945,-1,-1,0,-4,-4,-2,1,-1
67545166229,-1,-1,-2,2,3,-2,-2,-1
67545166229,-1,-1,-2,-2,-2,0,-1,-2
67545172992,0,0,-1,-4,-2,-1,-1,-1
67545172992,-2,0,-1,0,-1,0,-1,1
67545180554,-1,-3,-2,-2,-5,-2,-3,-2
67545180554,-1,2,1,-1,-2,-2,-2,0
67545195518,-1,-2,-1,0,1,-2,-1,-2
67545195518,-3,-1,-2,-2,-1,-1,0,0
67545203751,-1,0,0,-4,-5,-2,-2,0
67545203751,0,-5,-1,2,2,-1,-2,0
67545217979,-2,-1,-1,-1,-3,1,0,-2
67545217979,1,5,-1,1,1,-1,-2,-1
67545226049,-3,-13,-1,-1,-2,-2,-2,0
67545226049,1,4,-1,-3,-2,1,-1,-1
67545240964,2,1,-2,-2,1,-2,-2,1
67545240964,-1,-1,0,0,1,-1,-2,-1
67545241822,-1,6,1,-3,-3,-2,0,0
67545241822,-3,-3,-1,-6,-5,-2,-3,-2
67545255526,-2,-3,-3,3,5,-1,-1,-2
67545255526,-1,-2,-2,-3,-4,-2,-3,-3
67545263637,1,-1,0,-4,-6,-2,-1,1
67545263637,-1,-3,-1,0,2,2,0,-1
67545278031,-1,0,-2,-5,-6,-2,-2,-2
67545278031,0,-4,0,4,7,1,0,2
67545286259,0,1,-1,1,2,1,0,-1
67545286259,0,0,-3,-1,-5,-3,-1,-1
67545300983,-1,0,2,1,-3,1,0,-2
67545300983,-1,-3,-2,-1,0,-3,-1,-1
67545301727,0,0,-2,-2,-3,-1,0,-1
67545301727,1,0,-1,1,4,0,1,0
67545315509,0,-2,-1,1,-2,-3,-1,-2
67545315509,-2,0,-3,-1,-2,-1,0,-1
67545323748,-1,2,-1,-3,-2,-1,0,-1
67545323748,0,-1,0,0,-3,-4,-3,-2
67545337949,-1,-3,1,1,2,2,1,1
67545337949,-3,-2,-1,-6,-4,-1,-2,-1
67545346055,-1,-1,-2,2,2,1,-2,-1
67545346055,0,-2,-1,9,9,0,0,0
67545360912,-1,-1,-1,0,2,-1,-2,0
67545360912,0,-3,-1,-2,-2,-2,1,-1
67545361641,0,-1,-1,-3,-5,-3,-1,-1
67545361641,-3,1,-1,-3,-2,2,0,-1
67545375484,-2,0,0,-2,0,-2,0,-1
67545375484,0,-2,-1,-1,-2,-1,-2,-2
67545383647,-1,0,-1,-3,-4,-3,-3,0
67545383647,0,-2,0,-3,-6,-3,-2,-2
67545398091,1,-2,0,2,6,0,-1,1
67545398091,-2,-1,-1,-1,-1,0,0,-1
67545406194,0,-3,-1,0,2,1,-1,0
67545406194,-1,-2,0,-1,-1,-2,0,-1
67545421163,-1,-1,-3,-5,-5,-1,-1,1
67545421163,1,-1,-1,0,-5,-1,-2,-2
67545421839,-2,-2,0,8,12,2,1,-1
67545421839,-1,-1,-2,-6,-7,-4,-3,0
67545435273,-1,2,-1,-1,3,-1,-2,-2
67545435273,-1,-1,-1,-3,0,1,0,1
67545443753,-2,-1,-2,-6,-7,-2,-1,-2
67545443753,-2,-1,-1,0,4,-1,1,0
67545458007,-1,-1,0,-1,-4,1,-1,0
67545458007,-1,-1,0,0,0,-2,-2,0
67545466223,0,-1,-2,-2,-3,0,-1,-2
67545466223,1,-2,-2,-2,-1,-2,1,-1
67545481009,0,0,0,-1,-2,-2,-1,-1
67545481009,-1,-2,-2,3,3,1,1,0
67545481856,0,-1,1,-1,-3,-3,-2,-1
67545481856,-1,-1,-1,-7,-6,-1,-3,-1
67545495532,0,-3,-2,11,5,2,0,-1
67545495532,-1,0,-1,-1,1,0,0,-2
67545503456,-2,-1,-1,-4,-3,-2,0,1
67545503456,-2,-2,-2,-1,-1,-3,-2,-1
67545517982,-2,0,-1,-3,-5,-3,-2,-1
67545517982,-1,-1,-1,-1,-1,-2,-3,0
67545525985,-2,1,-1,0,1,2,1,0
67545525985,0,-1,0,-1,-4,-2,-2,-3
67545541130,1,-3,-3,1,5,2,0,0
67545541130,-1,1,-3,-1,2,-1,-1,0
67545541763,0,-2,0,-2,-5,-2,-2,-1
67545541763,-1,-1,-1,1,0,1,-1,0
67545555500,-2,-1,1,0,-4,-1,1,-3
67545555500,-2,-2,-4,-3,2,0,0,-1
67545563666,1,-2,0,2,1,0,1,-1
67545563666,-1,-3,-3,0,-1,1,0,-1
67545577867,-1,0,-1,-5,-5,-3,-2,-2
67545577867,0,0,1,-2,-3,-3,-1,-1
67545586013,-2,-1,-1,-4,0,2,1,-1
67545586013,0,1,-1,5,3,0,-1,1
67545601040,-1,-2,-2,-6,-6,1,0,-1
67545601040,-1,-1,-2,1,-5,-1,-1,-1
67545601868,-1,-1,-3,0,4,-3,-2,-1
67545601868,-1,-1,-1,-4,-3,-3,-1,-1
67545615487,0,-1,-1,1,3,3,3,2
67545615487,-2,-2,-1,0,0,1,-1,-1
67545623710,-1,-1,-2,0,2,0,1,-1
67545623710,-1,-2,0,-2,0,-1,-1,-1
67545638075,1,-1,-3,1,-4,-2,-2,-1
67545638075,-2,-2,-2,-8,-3,-1,-1,-1
67545646265,-3,-1,-1,-3,-6,-1,-2,-1
67545646265,0,-1,0,2,1,-2,-1,-2
67545661136,-2,-2,-2,-4,-1,-2,-2,1
67545661136,0,-1,0,0,0,0,-1,-1
67545661768,0,-1,-3,1,-1,-1,-1,-1
67545661768,-3,0,-1,-4,-1,-1,-1,-2
67545675427,-1,0,0,0,-1,-2,-2,-1
67545675427,-1,-1,-1,0,-3,-3,-2,-1
67545683715,-1,-1,-2,-1,1,-1,-2,-1
67545683715,0,0,-1,0,3,0,0,1
67545697956,0,-1,-1,-4,-2,-2,0,-2
67545697956,-1,-1,0,0,-4,-1,-1,0
67545705974,0,0,-1,-3,-1,1,0,-2
67545705974,-1,-2,-1,0,-2,2,0,0
67545721084,0,-1,0,3,2,-2,0,-1
67545721084,0,-1,0,-2,-3,-4,-1,-2
67545721741,-2,0,-2,-1,-3,-2,-2,-1
67545721741,-1,0,-2,-4,-2,-2,-2,-1
67545735327,-1,-2,-3,-2,0,-3,0,-1
67545735327,-1,-2,-2,2,0,2,0,-1
67545743797,-2,0,-1,-3,-6,-1,-2,0
67545743797,-1,-4,-1,1,1,-2,0,-1
67545758001,-1,0,-1,-2,1,1,-3,-1
67545758001,-1,-2,1,3,0,-2,-3,-3
67545766271,0,-3,1,1,2,-1,0,-1
67545766271,-2,-2,-1,0,-3,0,-2,1
67545780456,-1,-1,-2,-1,-3,-1,-1,-2
67545780456,0,0,-2,-3,-2,-4,-2,0
67545789272,-2,-2,-1,-5,-4,1,0,0
67545789272,-1,-1,-1,10,7,2,1,0
67545795509,0,-1,0,-3,-2,-1,0,0
67545795509,-2,-1,1,1,0,-1,-1,0
67545804338,-1,-1,-1,0,-1,-3,-2,0
67545804338,0,-1,-1,-5,-2,-1,-1,-2
67545818021,-4,-1,0,-4,-6,-4,-4,-2
67545818021,0,0,-2,1,5,0,-1,-1
67545826881,-1,-1,0,-2,-4,0,0,-1
67545826881,0,-2,-1,-1,0,-2,-1,-1
67545840377,-1,-1,0,-2,-3,-2,0,-1
67545840377,-1,-1,0,-3,-2,-1,-1,1
67545849325,0,-3,-1,1,1,-1,-2,0
67545849325,-1,-1,-1,-2,-3,-2,0,0
67545855470,-1,-1,-2,-6,-4,0,-1,-1
67545855470,2,-1,-1,10,5,-1,0,-1
67545864372,1,-1,-1,-1,2,1,0,-1
67545864372,-1,1,-1,-1,-5,-5,-4,-2
67545878083,-2,-4,-2,-1,2,0,0,0
67545878083,-2,-1,-2,-4,-1,1,0,0
67545886851,-2,0,-1,2,-1,-1,-1,0
67545886851,0,-2,-2,-3,-1,-2,-2,-1
67545900647,-1,0,2,0,-1,-2,-2,0
67545900647,0,1,1,-1,1,-1,-1,-1
67545909227,-1,-1,-1,-5,-8,-5,-1,0
67545909227,0,0,-2,1,3,-1,-1,0
67545915329,0,0,-1,2,3,1,0,-1
67545915329,0,-1,-2,0,-6,0,-2,0
67545924264,-3,-2,0,-3,2,1,-1,-1
67545924264,-2,-2,0,-4,-4,-1,-1,-3
67545938074,0,0,-1,1,-4,-3,-1,-1
67545938074,0,0,-1,-3,0,1,2,1
67545946807,0,-1,-4,0,-4,-2,1,-1
67545946807,0,0,0,0,1,-2,0,-3
67545960391,0,-1,-2,1,2,0,0,-2
67545960391,-1,-2,-2,-2,-2,-4,-3,-1
67545969295,-2,-1,0,-1,-2,0,-2,-2
67545969295,-2,-1,0,-1,1,4,2,-1
67545975568,-1,-3,-2,-2,-1,0,1,-2
67545975568,-2,-2,-1,-1,-3,-2,1,-1
67545984230,0,-1,-2,2,0,-2,-2,-1
67545984230,0,-1,0,-1,-4,-3,-1,0
67545997966,-2,0,-1,1,-1,-2,-2,-1
67545997966,-1,-3,-1,-7,-1,0,0,0
67546006806,-1,-1,0,2,-2,-3,-1,1
67546006806,-1,0,-3,1,2,1,0,-1
67546020445,-1,-2,0,-2,-3,-1,0,-1
67546020445,0,0,1,-2,-2,0,0,-3
67546029350,0,-1,-2,-2,0,0,-2,-2
67546029350,-2,-1,-3,-3,-3,-1,-1,0
67546035382,-1,-2,-1,-1,-4,-3,-2,-1
67546035382,-1,-1,-2,0,2,-1,-1,-2
67546044234,0,-1,0,0,3,4,1,0
67546044234,-1,0,-1,0,-2,-2,0,-2
67546057845,-1,0,-1,-1,-2,0,0,2
67546057845,0,-1,-1,-1,-3,-3,0,-1
67546066852,-2,1,0,-1,1,-2,0,0
67546066852,-1,-2,0,-1,-1,0,0,-2
67546080537,-1,-1,0,0,2,-1,0,0
67546080537,-1,-2,-1,0,0,-1,-2,0
67546089394,0,1,0,-6,-3,-2,-3,-1
67546089394,-1,-1,-1,4,-2,-1,-2,0
67546104327,-1,-2,-1,0,-3,-1,-1,-2
67546104327,-3,0,-2,-4,0,0,-1,1
67546105828,0,-1,0,0,-1,-2,-2,-2
67546105828,1,-2,2,-1,1,1,0,0
67546118037,-1,-1,0,-1,0,-1,-1,-2
67546118037,-1,-2,0,2,-1,-2,0,0
67546126878,0,-3,-1,-3,-2,0,-1,0
67546126878,0,-1,-1,-1,-2,0,-1,0
67546140608,0,-1,-1,-3,-1,-1,-1,-1
67546140608,-1,-2,0,-1,-2,-1,0,-2
67546149245,-2,0,-2,-2,-2,-1,1,-2
67546149245,-2,-1,0,-2,0,0,0,1
67546155324,-2,-1,0,-3,0,-2,-2,1
67546155324,-1,0,-2,-1,-5,-1,-2,-2
67546164301,-1,-2,-2,0,-2,-2,-2,-2
67546164301,0,-1,-3,3,1,1,0,-2
67546178017,0,1,-1,-2,-1,-3,-1,-2
67546178017,-1,-2,-2,-1,-1,-1,-1,1
67546186795,-2,-2,-2,-3,-4,-1,-1,1
67546186795,-2,-1,0,-3,-1,-2,-2,-2
67546201013,-1,-2,-2,1,-1,0,-1,-1
67546201013,0,-1,1,-2,-2,-2,-3,-2
67546207969,0,0,0,2,1,0,0,-1
67546207969,-1,-1,-3,-2,-3,-2,-2,0
67546224408,0,0,-1,-1,-1,-1,0,-3
67546224408,-1,-1,-2,0,0,-1,-2,-2
67546225749,-1,0,-1,-1,-2,-1,-1,-1
67546225749,-2,-2,-1,-2,-2,-1,0,0
67546238100,1,-2,-2,0,1,1,-1,-1
67546238100,0,-2,-1,-1,1,2,1,1
67546246786,0,-1,-1,-1,-2,-4,-1,0
67546246786,-1,0,0,-5,-3,0,-2,-1
67546261214,-2,-1,-1,0,-2,-1,-3,0
67546261214,-1,-1,0,-1,-3,-1,0,-2
67546268059,-2,-2,-1,1,1,1,1,0
67546268059,0,1,0,-2,0,-2,-1,-1
67546284391,-1,0,-1,-4,-2,-1,-1,-2
67546284391,0,1,-1,2,2,-2,-2,0
67546285830,0,-2,-1,-1,-1,3,2,0
67546285830,-1,0,0,2,1,-1,-2,0
67546298014,-3,-1,1,0,-1,-2,0,1
67546298014,-1,-1,-2,-2,-2,-3,-1,-2
67546306844,-1,0,-1,-2,1,0,0,-2
67546306844,-2,-1,-2,-2,-4,-2,-2,-1
67546321073,-2,-1,-1,0,-2,-1,-1,-1
67546321073,-1,-2,0,-1,-2,-2,-1,0
67546328036,-1,-1,1,0,-3,-2,-1,0
67546328036,1,-2,0,0,0,-1,-3,-1
67546344317,0,1,-1,-7,-5,-1,-2,-2
67546344317,-2,-2,0,4,1,2,-1,-1
67546345761,-2,-2,-1,-5,-1,-1,-2,0
67546345761,-2,-1,0,-2,-2,-1,-1,-3
67546358037,0,-1,-2,2,0,-2,-2,0
67546358037,0,0,-2,-2,0,1,1,-2
67546366856,-2,-2,-1,2,3,-1,1,0
67546366856,-3,0,-1,-1,-3,-2,-2,-1
67546381194,-2,-1,-1,-1,2,-2,-1,-1
67546381194,-1,-2,-2,1,2,2,2,0
67546388108,-1,0,-2,0,-5,-2,-4,-1
67546388108,0,-1,-1,-4,0,-1,1,0
67546404359,-1,-1,1,6,1,0,0,-2
67546404359,0,1,-1,-5,-5,-3,-1,-1
67546405818,0,0,1,0,1,2,1,-1
67546405818,1,0,0,-1,-3,-2,-1,-1
67546418040,-2,0,-3,-2,-1,-2,-2,-1
67546418040,-2,-2,-1,-4,-4,-2,-2,0
67546426808,0,1,-1,0,1,-3,-1,-2
67546426808,-1,0,-1,0,0,0,-1,-1
67546441079,-3,-1,0,-2,-4,0,-1,0
67546441079,0,0,-2,-1,1,0,-1,0
67546447987,1,-2,-1,-1,-4,-3,-1,0
67546447987,-1,0,-2,0,0,1,-2,-1
67546464334,-1,-2,-3,-3,1,2,2,0
67546464334,-1,1,2,3,1,0,-1,-1
67546465829,-2,-1,0,-1,1,-1,-2,-3
67546465829,-1,-1,0,-3,-7,-3,-2,-1
67546478034,-1,-2,0,4,2,-2,-2,0
67546478034,-1,-1,-2,-3,-4,0,0,0
67546486862,-2,0,0,0,-1,0,0,-1
67546486862,1,-2,-2,1,2,0,0,-2
67546501032,0,1,-1,-1,1,1,0,-1
67546501032,-1,-1,-3,-1,-4,-2,-2,-1
67546507925,-1,-1,-3,-1,10,-1,0,-2
67546507925,0,0,-2,-1,-2,-1,0,-1
67546524278,-1,0,-2,-2,-2,-1,-2,0
67546524278,-1,0,-1,0,-2,-4,-3,0
67546525759,0,-2,0,-1,-3,-1,-2,-1
67546525759,0,-3,-3,-7,-1,2,2,0
67546537775,1,0,1,9,5,0,-1,-1
67546537775,-2,-1,-1,-4,-2,-1,-3,-2
67546546807,0,-1,0,-2,-7,-3,-3,-1
67546546807,-1,-2,0,-2,-2,-2,-1,-1
67546561007,0,-1,0,-5,-4,0,1,-1
67546561007,-1,-1,-2,-2,1,1,2,-2
