timestamp,emg1,emg2,emg3,emg4,emg5,emg6,emg7,emg8
67578194012,1,-2,-2,-1,-2,-1,-1,-2
67578194012,-1,-1,-1,-1,-2,-2,-1,-2
67578194999,-1,-1,-2,-2,-4,-2,-2,-2
67578194999,-1,-1,-3,1,0,-1,0,0
67578196194,0,0,0,-2,1,-3,-1,0
67578196194,-2,-3,-1,0,2,2,1,1
67578196980,1,0,-1,-1,-4,-6,-2,-2
67578196980,0,-1,-2,0,4,5,1,-2
67578207040,0,1,1,-1,0,1,0,-1
67578207040,-1,-4,-3,-2,-2,-4,-4,-2
67578210620,-3,0,2,0,-6,1,1,-1
67578210620,-2,-3,-1,-2,2,-2,-3,-2
67578226934,-3,-2,-1,0,-5,-2,-2,-2
67578226934,0,1,1,1,-2,0,-1,-1
67578234355,0,-4,-3,0,0,2,2,0
67578234355,1,-1,0,-1,-4,-4,-2,-2
67578251940,-1,-1,0,-1,1,3,0,0
67578251940,0,-1,-1,-2,-5,-6,-4,-2
67578255586,-2,-1,-3,-2,3,-1,-3,0
67578255586,0,0,-1,-2,-5,0,3,0
67578267093,-1,-2,-1,0,-1,-2,-1,-2
67578267093,1,1,-1,0,-1,-1,-3,-1
67578279265,0,-2,-2,-2,-3,-7,-2,-1
67578279265,-2,-1,-3,0,2,4,-1,-2
67578317237,0,1,-1,-1,-1,-3,-2,0
67578317237,0,-1,0,-2,-1,-3,-1,-2
67578317968,0,-1,-2,-2,-3,-3,-1,1
67578317968,-2,0,-1,0,0,-2,-1,-1
67578318745,-2,0,0,-1,-3,-6,-4,-1
67578318745,0,-1,-1,2,0,3,2,-1
67578319553,0,-1,-2,-1,0,-1,-3,-2
67578319553,0,0,-2,-1,-3,-2,-1,-2
67578330287,-2,-1,1,-2,0,1,1,0
67578330287,0,-1,0,-2,-6,-6,-4,-2
67578337883,-2,0,-2,0,1,0,0,-2
67578337883,0,-1,-1,0,-1,0,-3,0
67578346787,-1,0,-3,0,1,0,0,-2
67578346787,-3,-2,-1,-3,0,-2,-2,-2
67578361051,-2,-3,1,-3,-3,-6,-2,-1
67578361051,-1,-2,-1,-3,0,5,1,-2
67578367824,0,-2,-2,-1,-2,0,-1,0
67578367824,0,-1,-1,-1,-1,-3,-2,0
67578375200,-1,1,-1,-1,-1,1,-1,-1
67578375200,2,-3,-1,0,-4,-3,0,-1
67578390323,-1,-2,-1,1,5,6,5,1
67578390323,-2,-2,-1,-2,0,-1,-2,-1
67578397804,-1,-1,-1,-1,-9,-2,0,-1
67578397804,-2,0,-1,1,7,0,0,-1
67578406712,0,-3,0,-2,-2,-2,-3,-4
67578406712,-1,-1,-3,-2,0,0,1,1
67578420981,-2,0,-1,-2,-2,-1,0,-2
67578420981,0,-1,0,-1,-1,-1,-1,0
67578427873,1,-2,-1,0,-2,-3,0,1
67578427873,-1,1,-1,-3,1,0,-1,-2
67578435257,-3,0,-3,-2,-1,-1,-2,-2
67578435257,-2,-1,-2,-1,-4,-7,-3,0
67578450401,-1,1,0,0,5,7,1,0
67578450401,0,-3,-2,1,-2,1,0,1
67578457931,1,-2,-3,-1,-1,0,-3,0
67578457931,-1,-2,0,-4,-4,-5,-2,-2
67578466727,-1,-1,-4,-4,-9,-7,-4,-1
67578466727,-3,0,-1,2,7,4,1,-1
67578480931,0,-2,1,1,3,3,0,-2
67578480931,-3,1,-1,-2,-9,-1,-2,-1
67578487857,0,-1,0,1,5,-1,-1,-2
67578487857,0,0,-2,-2,-4,-1,-2,-1
67578495376,-2,-2,-2,0,0,0,0,0
67578495376,-2,-1,0,-1,-2,0,1,-1
67578510455,-3,-2,-1,0,0,1,-1,0
67578510455,-3,-1,-1,-2,-3,-4,-1,0
67578517805,-1,0,0,-1,1,-3,-2,0
67578517805,0,-2,-1,-1,-1,-3,-2,-1
67578526821,1,2,-1,2,4,6,2,0
67578526821,-1,-2,-1,-4,-4,-5,-1,0
67578540872,-1,-5,-1,0,0,-1,0,0
67578540872,0,-1,2,1,5,2,-2,-1
67578547706,-3,-1,-1,-5,-6,-5,-3,-2
67578547706,1,-2,-1,0,3,3,1,-1
67578555180,0,-1,-1,-2,-4,-6,-4,-2
67578555180,-1,-1,-2,0,0,2,1,-1
67578570235,-2,-3,-2,-3,-8,-4,0,-1
67578570235,-2,3,0,0,7,2,-1,0
67578577743,-2,-2,-1,1,-1,0,0,-2
67578577743,-1,-2,-3,-1,0,-1,1,1
67578586651,0,-1,0,1,0,0,-2,1
67578586651,0,-1,0,-3,-6,-1,-2,0
67578600862,-1,0,0,1,0,-1,0,0
67578600862,-2,-2,-1,-3,-4,-2,-4,-1
67578607719,-1,-3,0,-1,2,3,0,-1
67578607719,0,-2,0,2,-1,-2,-2,-2
67578615193,-1,1,0,-2,-1,-1,-2,-1
67578615193,-1,1,-1,-3,-2,-3,-1,-1
67578630266,-1,0,-2,-2,0,-2,-2,-2
67578630266,-1,-2,1,2,0,1,1,-1
67578646811,-1,0,0,-1,0,1,0,-1
67578646811,-1,-2,0,-1,-3,-3,0,-1
67578648110,-1,0,-1,-3,-3,-5,-3,-2
67578648110,0,0,0,0,1,0,-2,-1
67578661148,-1,-1,-2,-2,-2,0,-1,-1
67578661148,-1,-2,-3,-2,-2,-3,-1,-1
67578667941,-1,-1,-1,2,4,4,1,-1
67578667941,-1,-1,-2,0,-5,0,0,1
67578675320,-1,1,-2,0,1,-1,-1,-2
67578675320,-1,-1,1,0,-1,0,-2,-1
67578690481,-2,0,-1,-4,-6,-6,-3,-1
67578690481,-1,-2,0,-2,2,1,2,-1
67578697916,0,-2,-2,-1,-1,-2,-2,-2
67578697916,-1,0,0,2,4,1,2,0
67578706762,1,-2,-1,-1,0,0,-1,1
67578706762,-1,-2,-1,-1,-3,-1,-3,0
67578721105,1,0,0,-2,-1,1,2,1
67578721105,0,-2,-1,0,-1,0,-1,-1
67578727997,0,1,-1,-2,-4,-6,-4,-1
67578727997,-2,-1,-1,-1,-3,-4,-3,-2
67578743420,-1,-1,0,1,-5,0,-2,-1
67578743420,-1,-1,-1,0,7,-2,0,-1
67578750350,-1,-2,0,-1,2,6,2,-2
67578750350,-2,1,-2,-3,-7,-4,-2,1
67578757809,-3,-3,0,0,-2,0,1,-2
67578757809,0,-1,-1,-2,-4,-1,-2,-2
67578766711,-1,-1,0,0,0,-1,0,-2
67578766711,-2,-3,-2,1,4,2,1,0
67578781114,-1,0,-2,-2,-1,-2,-1,-2
67578781114,0,-1,0,-2,-3,0,-3,-1
67578787798,-1,-1,0,-1,-5,-4,-3,-1
67578787798,-2,0,-1,-3,-6,-4,-5,-3
67578803657,0,0,0,2,6,4,3,1
67578803657,1,0,-1,0,1,2,0,-1
67578810340,-1,-1,-2,-3,-3,-1,-2,0
67578810340,0,-2,-1,0,-2,-2,-1,-1
67578817929,-2,-4,-2,-1,1,-1,-3,-1
67578817929,-2,-1,-1,-1,-2,-3,-2,-1
67578826805,-1,-1,0,-2,-1,0,-1,-1
67578826805,2,-1,0,0,-1,-2,2,-1
67578841171,0,-1,-2,-1,-9,0,-4,-1
67578841171,-1,-1,-2,-1,6,3,1,-1
67578847888,-2,0,-1,1,0,-2,2,1
67578847888,-2,1,-2,-1,1,3,0,0
67578863532,-1,-4,-1,-2,-4,-5,-2,-2
67578863532,-2,0,-4,-4,-2,-4,-1,-1
67578870427,0,1,-1,0,-2,-2,-1,-1
67578870427,0,0,1,-1,-1,-1,-3,-2
67578877811,-2,-2,-2,-3,3,1,-2,-1
67578877811,-2,0,1,2,-1,1,-3,-2
67578886771,0,3,0,-1,0,-2,-1,-1
67578886771,0,-3,-3,1,-3,-1,1,-2
67578901015,-2,0,1,-2,1,-1,-1,-1
67578901015,0,-1,1,-1,-2,-1,-1,-1
67578907953,-2,1,0,3,2,0,-1,-1
67578907953,-1,-2,-1,-5,-2,-3,-2,-2
67578923377,0,0,-1,-1,2,-1,2,0
67578923377,1,0,0,1,-1,0,1,0
67578930212,-2,-2,0,-1,-3,-2,-2,-3
67578930212,-3,-3,-2,-3,-5,-8,-4,-2
67578937780,-2,-2,-4,-4,-4,2,-1,-2
67578937780,-1,1,1,0,5,5,1,1
67578946705,-1,-1,-2,1,0,-1,-1,-1
67578946705,-1,-2,-1,-2,1,1,1,2
67578960944,0,1,3,0,-3,-3,-2,-3
67578960944,-1,-2,0,-2,-5,-6,-3,-3
67578967808,-1,-3,-4,-4,-4,-4,-2,-3
67578967808,-2,1,-6,-3,5,6,4,1
67578983632,0,3,3,2,4,1,1,1
67578983632,-1,-3,-2,-1,-2,0,1,0
67578990281,0,0,-1,-1,-5,-1,-2,3
67578990281,0,1,3,1,5,-2,-5,-3
67578997921,0,-2,-1,2,1,2,-2,-1
67578997921,-3,-1,-1,0,-3,-2,-2,-2
67579006718,-1,-5,-6,-6,-3,-1,0,-3
67579006718,0,-2,-1,-1,-3,-1,-3,-4
67579020895,-1,-3,-1,-1,1,0,1,-1
67579020895,-1,-2,0,-2,-3,-10,-6,0
67579027692,0,-3,1,2,0,5,1,1
67579027692,-1,-2,0,0,1,2,0,-1
67579043521,-2,-2,-3,-3,-2,-5,-3,-3
67579043521,1,0,-2,-2,-3,0,-2,-1
67579050330,0,-3,-1,-4,-3,-5,-3,-2
67579050330,-1,0,0,2,1,1,0,-1
67579057891,2,1,1,3,2,4,2,2
67579057891,0,2,-4,-3,-2,0,-1,-1
67579072750,-1,0,1,0,-6,-2,-1,-1
67579072750,-2,-2,2,0,7,-4,-3,-2
67579081003,-1,0,-2,-4,-3,2,2,1
67579081003,-3,-4,-2,-1,-2,0,-1,-2
67579087811,2,1,-1,-3,-2,-2,-2,-1
67579087811,-1,-4,-3,0,-6,-2,-2,-1
67579103539,-1,-1,0,2,0,-3,-4,1
67579103539,2,3,0,-2,3,7,3,0
67579110367,-2,-2,-1,0,-2,-3,-3,0
67579110367,-1,-1,0,-1,-4,-3,0,0
67579117852,-3,-2,-2,-5,-4,-7,-4,-5
67579117852,0,0,1,4,7,6,1,0
67579132845,0,1,-1,1,2,1,-1,0
67579132845,-2,0,0,-3,-6,-3,0,-1
67579141023,-1,-3,-2,-1,-3,-4,-3,-1
67579141023,-2,-2,-2,0,-1,-1,1,-1
67579147888,-1,0,0,0,3,0,1,-4
67579147888,-1,-3,-3,-2,-4,-4,-18,-1
67579163595,0,0,0,-2,-7,-1,14,2
67579163595,-1,-1,2,4,10,3,-3,-1
67579170292,-1,-3,-1,1,2,4,6,1
67579170292,-1,5,-1,-2,-5,-4,-6,-2
67579177893,-2,-2,0,-1,1,0,-2,0
67579177893,-3,-5,-1,-2,-7,-4,-1,0
67579192907,-3,-2,-2,-4,-5,-2,-4,-3
67579192907,0,-1,0,-1,0,0,3,1
67579201122,2,0,-3,1,-2,-1,-5,-2
67579201122,-1,-2,-1,-3,-6,-4,2,-2
67579207890,-1,1,-1,0,5,0,-3,-1
67579207890,1,0,-1,0,0,3,5,0
67579223473,-1,0,0,2,3,4,-2,0
67579223473,-1,-3,0,-1,-2,-2,-5,-2
67579238630,-2,-2,-3,-3,-2,-4,-2,-1
67579238630,1,0,-1,0,2,4,5,1
67579239179,-3,-3,-1,-3,-3,-4,-4,-3
67579239179,0,-2,-1,0,2,1,3,0
67579252765,-1,0,-1,-1,-1,-2,-1,-2
67579252765,-1,-2,-2,0,-9,-1,-1,-1
67579261103,0,-2,-3,-1,7,2,-5,-1
67579261103,0,-3,-1,-3,-6,-2,-4,-2
67579267992,-2,-1,1,0,0,-5,-4,0
67579267992,-2,-1,-2,-1,-2,0,1,-2
67579283536,-1,1,-1,-2,-5,-2,-2,0
67579283536,-3,0,-2,1,-1,-2,0,0
67579290339,0,-1,-2,-1,0,4,3,-1
67579290339,-1,-2,0,-3,-2,-3,-1,-2
67579306119,-3,0,-2,-2,-6,-3,-3,-2
67579306119,0,1,-1,-1,-1,-3,-1,-1
67579312906,-3,-3,-1,2,-1,3,0,-2
67579312906,-1,0,1,0,-1,-2,-2,0
67579329174,0,-2,-2,-2,0,0,3,-1
67579329174,-1,0,1,1,3,5,2,1
67579330692,-2,0,-2,0,-2,-5,-3,-2
67579330692,-1,-1,0,0,2,1,1,-1
67579343480,-2,-2,0,1,-2,-1,-1,-1
67579343480,-3,1,-1,-4,-2,-4,-6,-3
67579350418,1,-2,-1,-2,-1,0,-1,-1
67579350418,-1,0,-1,2,1,-1,-1,-2
67579365878,-2,-3,0,-1,-1,-2,-2,-2
67579365878,1,-1,-2,-2,-3,-3,1,-1
67579372677,0,0,-3,-4,-1,2,0,-1
67579372677,2,0,1,1,3,2,2,0
67579389115,1,0,-2,-1,0,0,-3,-1
67579389115,-2,1,-4,-3,-2,-3,-5,-1
67579390683,1,-2,3,0,0,-4,-1,3
67579390683,-4,-2,-5,-4,-2,0,-4,-7
67579403534,-1,-2,-1,0,1,2,0,0
67579403534,-1,0,-2,-1,-4,-3,0,-2
67579410398,1,0,-1,0,-1,0,-2,-1
67579410398,-4,-2,-1,-1,0,1,1,2
67579425943,-10,0,0,0,0,-3,-2,-2
67579425943,10,-1,1,-1,-2,-2,0,1
67579432730,-1,0,0,3,0,1,0,-3
67579432730,1,-4,-2,-4,-4,-3,-3,0
67579449056,0,0,0,0,-2,-1,0,0
67579449056,-2,-3,8,10,-1,1,-1,-6
67579450708,6,1,-6,-8,-1,-1,-1,0
67579450708,0,-1,7,11,-1,-4,0,-3
67579463610,9,3,12,7,3,0,-2,0
67579463610,-9,-2,-9,-6,-2,-2,-1,0
67579470351,-13,0,7,12,1,-2,-4,-1
67579470351,12,2,1,-7,-3,-1,-3,2
67579486165,-4,-4,-27,-3,0,0,-1,-1
67579486165,2,-1,1,-16,-4,-3,-3,-2
67579492901,-5,1,1,17,3,1,0,2
67579492901,-2,-3,-19,-24,-5,-6,-4,-9
67579509258,6,1,7,4,2,3,1,0
67579509258,-1,0,-9,1,1,0,0,1
67579510667,-3,-3,-2,-7,-2,-1,-1,-3
67579510667,-5,0,6,6,4,1,2,2
67579523622,0,-2,-2,-6,-7,-5,-3,0
67579523622,-4,-4,-3,1,-2,-2,-2,4
67579537982,2,-1,-6,-6,-4,2,2,-2
67579537982,-4,-1,8,2,-1,-2,-1,-2
67579546132,3,0,-6,-3,-2,0,1,11
67579546132,-15,-1,0,-1,1,0,-2,-23
67579552920,2,0,8,8,0,-1,0,1
67579552920,-2,-5,-12,3,-4,-2,-2,-1
67579569078,-5,-1,-10,-24,-4,-3,-2,0
67579569078,8,3,6,6,-1,-2,0,2
67579570734,-7,-2,-12,-14,-3,-2,-4,-7
67579570734,-2,1,3,2,1,1,3,4
67579583594,1,0,12,8,-2,-1,-3,-5
67579583594,-8,-3,0,1,-2,-2,0,0
67579590231,14,-1,-1,-10,-1,-2,-3,-1
67579590231,0,1,-4,-7,-1,-1,-1,4
67579606020,-3,-4,2,11,-7,-6,-5,-6
67579606020,1,-2,1,3,2,10,4,1
67579612869,-4,-2,2,6,12,5,2,4
67579612869,-2,-1,3,-3,-3,-2,-2,-2
67579629024,0,0,1,-7,-3,-3,-1,-2
67579629024,-2,0,-4,-4,-7,-9,-6,1
67579630700,1,-1,6,2,-2,1,2,0
67579630700,-3,-2,-6,-1,-1,1,0,-1
67579643626,0,4,12,5,0,0,0,-6
67579643626,0,-3,-8,-6,-3,-3,0,3
67579650337,-1,-1,0,-8,-3,-2,-2,6
67579650337,-3,-3,3,3,0,-2,-3,-11
67579666113,-3,-4,-6,-1,0,1,1,-1
67579666113,3,1,4,3,2,1,0,3
67579672709,-12,-1,-13,-18,-5,-4,-2,-2
67579672709,-1,4,15,18,1,-1,-1,1
67579689333,6,5,11,-4,1,0,0,0
67579689333,5,0,-12,-1,3,1,1,2
67579690680,-2,-6,8,6,-4,-4,-2,-5
67579690680,-4,-3,-12,-10,-3,0,-1,1
67579703609,-4,-2,5,3,0,-1,-1,-4
67579703609,-6,0,6,1,0,-2,-1,-1
67579710392,10,1,-12,-4,-4,-4,-1,0
67579710392,0,-1,5,0,0,0,2,-1
67579726146,3,-4,-7,-4,1,1,-1,3
67579726146,-6,-5,-7,-4,-5,-4,-2,2
67579732934,-3,-3,-3,5,-3,-1,-2,-3
67579732934,2,1,1,-2,1,0,2,1
67579749076,-5,-2,-1,1,1,0,-3,-5
67579749076,0,-3,-2,-1,-1,0,-2,-2
67579750635,-1,4,10,4,-2,-3,-2,-2
67579750635,1,0,-14,-3,0,-1,-1,0
67579770991,-3,-4,-4,-5,0,1,1,-1
67579770991,0,3,12,5,2,0,-1,-2
67579771631,3,-1,1,3,-1,-1,0,0
67579771631,0,-3,1,-3,-4,-1,1,4
67579786752,-6,-2,0,1,5,1,-2,-10
67579786752,5,9,-2,-4,0,0,0,2
67579800951,-4,-15,4,4,-2,-3,-4,-5
67579800951,-3,-3,4,2,-3,-3,-2,-2
67579808457,0,0,-11,-3,-1,-1,0,1
67579808457,4,-2,6,1,0,-1,0,-1
67579809196,-5,4,-6,-3,2,2,-1,-5
67579809196,1,-2,-2,-3,-2,-2,-3,1
67579838441,-1,-2,-2,-3,-2,-1,-1,0
67579838441,-4,-2,0,0,0,-2,-2,-2
67579839133,-5,-1,-4,-5,-2,-2,-1,2
67579839133,4,1,-3,-3,-4,-3,-3,0
67579846719,2,1,2,3,2,2,2,0
67579846719,4,-4,-8,-4,2,0,-1,1
67579852924,-7,3,0,-3,-1,-1,-2,-2
67579852924,4,-9,-6,3,2,0,-1,9
67579868488,-9,0,5,-1,-6,-6,-7,-20
67579868488,-2,-3,-3,-2,-3,-1,-2,3
67579869216,0,5,3,4,1,1,-1,-1
67579869216,0,2,-12,-8,-4,-2,-2,1
67579890838,0,-1,-9,-1,-2,1,1,5
67579890838,-1,-2,-2,-3,-2,-1,-2,-4
67579891859,2,0,0,0,-2,-1,-2,-4
67579891859,-5,0,3,2,3,1,1,-6
67579906727,-1,-2,-3,0,0,-1,1,5
67579906727,-2,2,5,0,-2,-1,-3,-5
67579912773,2,-3,-16,-7,-3,2,0,2
67579912773,-2,3,3,-1,1,1,0,-3
67579928511,-1,-3,0,-4,-5,-6,-5,-1
67579928511,1,-1,3,2,4,1,1,0
67579929236,0,-3,-2,-2,-2,-2,-2,0
67579929236,-1,-1,-3,-3,-1,-1,-1,-4
67579951128,-1,-1,9,4,0,1,1,2
67579951128,-3,-2,-9,-3,-3,0,0,-2
67579951738,0,-1,-1,1,0,-1,0,1
67579951738,-3,3,-6,-4,-2,-2,-3,-4
67579966706,-1,-4,8,2,-2,-1,-2,3
67579966706,0,-2,-5,-5,-4,-1,-2,-1
67579972873,1,2,-1,1,1,-3,-2,-2
67579972873,-1,-2,4,5,3,-1,-1,0
67579987782,1,-3,-6,-5,-5,-3,-1,0
67579987782,-3,-4,-8,2,7,0,2,-1
67579995460,0,2,3,-3,-2,-2,0,0
67579995460,-3,-7,3,-2,-3,-1,-1,-3
67580011101,0,1,-9,-2,-4,-3,-2,0
67580011101,0,-1,1,-2,-2,-1,1,-1
67580011733,-1,-1,1,0,0,-1,0,1
67580011733,-2,2,-1,3,1,1,0,-1
67580026716,-1,-4,-6,-1,2,1,1,2
67580026716,-1,2,3,2,-3,-4,-4,0
67580032874,-2,-4,-1,-2,0,-2,0,-2
67580032874,-1,-2,-3,-7,-9,-1,-1,-1
67580048029,0,0,-2,4,9,2,-1,0
67580048029,0,2,2,5,5,-2,-3,0
67580055387,0,-3,0,-4,-7,-1,-3,-2
67580055387,0,-1,1,-1,-2,0,-1,-1
67580071021,-2,3,-3,-3,-5,-2,0,-2
67580071021,0,-3,-5,-4,-5,-2,-2,2
67580071693,-1,-2,-1,1,4,0,-2,1
67580071693,1,1,1,1,1,1,2,1
67580086652,0,-2,-2,-3,1,0,-2,-4
67580086652,-6,-1,0,-2,-3,0,0,-2
67580092882,7,0,0,-2,-3,-3,-2,1
67580092882,2,3,0,0,2,1,0,3
67580107907,-1,-3,-3,0,0,-1,1,0
67580107907,-3,0,-1,-4,-3,-3,0,-2
67580115290,-7,0,-2,-1,-3,-1,-3,-4
67580115290,-3,0,-3,0,1,-2,-4,-3
67580131014,4,1,4,0,-1,1,0,2
67580131014,-1,-3,-4,-2,-1,0,-3,-2
67580131646,-1,1,-2,0,-1,0,0,-1
67580131646,-2,0,-1,-3,-2,-2,-2,-3
67580146729,-4,-1,1,-2,-1,0,0,2
67580146729,1,-1,3,-1,-1,-2,-2,-1
67580152779,-3,-5,-3,0,2,0,-1,-2
67580152779,0,-2,-1,-1,1,-1,1,-1
67580167810,-1,0,-2,-3,-3,-3,-2,0
67580167810,-2,-1,-1,0,-3,-3,-1,-2
67580175352,1,0,-1,0,3,1,-1,-1
67580175352,-3,-3,-1,-1,1,-1,0,1
67580190973,-2,-2,-5,-1,-1,2,1,-1
67580190973,1,0,-1,-3,-3,-1,-1,-1
67580191708,-1,-2,1,-2,-3,-4,-1,-2
67580191708,-1,-2,-2,0,-3,-1,-1,-1
67580206719,0,1,0,1,1,-1,-1,-1
67580206719,0,2,0,0,0,0,-1,-1
67580212840,-1,2,-2,-4,-5,-3,0,-1
67580212840,0,-3,0,-2,-2,-1,-3,-3
67580227838,0,-1,-2,-1,0,0,0,0
67580227838,-1,-3,0,0,0,0,2,-1
67580235393,1,-2,-1,-1,-1,-3,-1,0
67580235393,-1,0,-1,-1,-1,-3,0,-2
67580251052,-1,-2,-1,-3,-2,-3,-3,0
67580251052,1,0,1,-1,-1,1,-2,-1
67580251690,-2,0,-1,1,0,1,-1,-1
67580251690,-1,-4,-3,-2,-1,-3,-2,-1
67580265369,1,-1,0,0,-1,-1,-1,-1
67580265369,-3,-4,-3,-2,-2,-2,-1,-2
67580272904,0,0,-2,-1,0,1,1,-1
67580272904,0,-1,-2,-4,-2,-2,-2,-1
67580287818,-1,0,-1,0,-2,0,-1,0
67580287818,1,-1,-2,-1,-1,-1,-2,-1
67580295375,0,-2,-2,-1,-1,1,0,0
67580295375,0,0,-1,-2,-1,-2,-1,-2
67580310974,-2,-3,-3,-1,1,2,1,-1
67580310974,-2,0,-2,0,-2,-2,-1,0
67580311671,0,-1,-2,0,-2,-4,-3,-1
67580311671,-2,-1,-1,0,0,1,-1,-1
67580325323,0,-1,-3,-3,-4,-4,-4,-2
67580325323,-1,1,-1,-1,-1,-2,0,-1
67580332708,-2,0,-2,-2,-1,2,0,-1
67580332708,-1,0,-3,-1,-2,-1,-1,0
67580347976,-2,-2,1,-2,0,-2,-2,-2
67580347976,0,-4,-2,-1,-2,0,-3,0
67580355236,-2,-2,-1,-3,-3,-3,-3,-1
67580355236,-2,-1,0,-2,-1,0,0,-1
67580370987,-1,-1,0,0,-1,1,-1,-1
67580370987,0,-1,-1,0,-2,-1,0,-1
67580371776,0,-1,-1,0,0,0,-1,-1
67580371776,0,0,-1,1,-2,-1,-2,-1
67580385444,-1,3,0,0,-2,-2,-2,0
67580385444,-1,-5,-1,-3,0,0,-1,-1
67580392981,0,-1,-1,1,0,0,0,0
67580392981,0,-2,-2,1,-1,0,2,0
67580407965,0,-1,-1,-1,0,-1,0,-1
67580407965,-1,-3,-1,-3,-3,1,-1,0
67580415487,-1,-1,0,-2,-1,-3,-4,0
67580415487,-1,-1,-1,0,1,-2,-2,0
67580431094,1,0,-1,1,-2,0,1,-1
67580431094,-2,0,-2,0,0,-1,1,1
67580431693,-1,-2,-2,-1,-2,-1,0,-1
67580431693,-2,-1,-1,1,-1,-1,0,0
67580445387,0,-1,0,0,-2,-4,-2,0
67580445387,-1,-1,-1,-2,0,1,-1,-2
67580452710,0,1,-1,1,2,2,2,0
67580452710,-1,0,-1,-1,-1,-1,0,0
67580467846,-3,-2,-2,-3,-1,-1,1,-1
67580467846,-1,-1,-3,-1,-3,-2,-1,-1
67580475357,-1,-2,-2,-2,-1,0,-1,-1
67580475357,-1,-2,-1,-1,-3,-2,-4,-3
67580491015,-2,-3,-2,-3,-1,0,-2,-1
67580491015,-2,0,-1,-2,-2,-1,-1,0
67580491724,-2,0,0,-2,-1,0,-1,0
67580491724,-1,-1,1,-1,0,-1,-1,0
67580505364,0,-2,-2,0,1,1,4,1
67580505364,0,-1,0,-2,-2,-2,-2,-1
67580512911,-1,-2,1,1,-2,-2,-1,-2
67580512911,-2,-1,0,-1,-4,-4,-3,-2
67580527889,-2,-3,-2,-2,0,-2,-1,-1
67580527889,-1,0,0,1,2,2,1,0
67580535411,0,-2,1,-1,-5,-2,-2,-1
67580535411,-1,-1,-2,-1,-1,-2,0,0
67580550867,1,-1,0,0,-2,-1,-1,-2
67580550867,-1,-1,0,-1,-1,-3,-1,-3
67580551572,-1,-1,-3,-4,-1,0,-1,-2
67580551572,-1,-1,-1,2,0,0,-1,-2
67580565391,-1,-1,-1,-3,-3,-1,-2,0
67580565391,-1,-1,0,1,-1,-1,0,-2
67580572863,1,-3,-1,-1,2,2,0,-1
67580572863,-2,0,-1,-1,0,-1,-1,-1
67580587749,-1,-4,-1,-1,-3,-1,-3,-1
67580587749,0,-1,-2,0,-2,-3,-1,0
67580595214,-1,-1,-2,-1,-2,-3,0,-1
67580595214,-2,-2,-1,-1,-2,-1,0,-3
67580610974,-1,1,0,1,1,1,-1,0
67580610974,-1,-1,-3,-1,1,0,-1,-2
67580611692,-2,0,1,0,1,1,0,-2
67580611692,0,-1,-1,-2,0,0,0,0
67580625453,0,0,0,0,-3,-2,-2,-1
67580625453,0,-3,-1,0,-1,-3,0,-1
67580632981,-1,-1,-1,0,0,1,0,1
67580632981,-1,0,-1,-2,-1,-3,-1,-2
67580647917,-1,0,-1,-1,-1,-1,-2,1
67580647917,0,0,-1,0,0,0,-1,1
67580655400,-1,-2,-1,0,-2,-5,-3,-2
67580655400,-1,-1,0,-2,0,-1,-1,-1
67580671086,-2,-1,-2,-2,1,1,1,0
67580671086,-1,0,-1,-1,0,0,-1,-1
67580671635,-1,-2,-1,-1,0,-2,0,-1
67580671635,-1,-2,1,0,-3,2,-1,-2
67580685435,1,-3,-2,-1,-3,-3,-2,-3
67580685435,-3,2,1,1,0,-1,-1,0
67580692926,-2,2,-3,-1,1,2,0,-1
67580692926,0,0,-1,0,0,-1,-2,1
67580707841,-1,-3,-1,1,-1,-2,-1,-2
67580707841,0,-3,-1,-1,-3,-2,-1,-1
67580715446,0,-2,-3,-2,-5,-1,-2,-2
67580715446,0,-2,-1,-2,1,-1,-1,1
67580730958,-1,0,0,-1,3,4,2,0
67580730958,1,-2,-1,0,0,-1,-1,-1
67580731723,-2,-2,-2,1,1,-2,-1,-1
67580731723,-2,-1,-1,-2,-1,-1,-1,-1
67580745243,-2,-1,-3,-2,-2,-3,0,-2
67580745243,-1,0,-1,0,-2,-1,0,-2
67580761060,0,-2,1,1,0,-1,-1,-1
67580761060,-1,-3,-1,0,2,1,1,0
67580767893,0,0,0,-2,-1,-2,-2,-1
67580767893,-2,-2,-3,-3,-3,0,-1,0
67580775391,0,0,-1,-2,-4,-2,-2,-2
67580775391,0,0,-1,1,0,1,0,0
67580791042,0,1,1,-2,0,-2,-4,-2
67580791042,0,1,0,0,-3,-1,0,-1
67580791639,-2,-3,-3,-2,-1,-2,-1,0
67580791639,-1,-1,-1,-1,-2,-3,-2,-2
67580805194,0,-2,-2,-1,-3,-2,-1,-1
67580805194,-1,-1,-1,0,-2,-1,-1,0
67580812883,-1,0,-1,0,1,1,1,0
67580812883,-1,1,0,-2,-1,0,-2,-2
67580827882,-1,-1,-2,-1,-3,-3,-2,-2
67580827882,-2,0,-1,-2,-3,-3,-2,-2
67580835408,-1,-1,-2,2,0,1,2,0
67580835408,-1,-2,1,1,-1,0,-2,-1
67580850912,-1,-1,-2,0,-1,0,-1,-1
67580850912,-1,-2,-1,-2,-1,-2,-2,0
67580851710,0,-1,-2,-3,-2,-3,-2,-4
67580851710,-1,0,-1,-2,0,-3,-2,-1
67580865469,-2,-1,-1,1,1,-1,0,2
67580865469,-1,-1,0,-2,-1,-2,-1,-2
67580872886,-3,2,0,1,-3,-1,0,0
67580872886,0,0,-2,1,-1,1,2,0
67580887923,1,-1,-2,-1,0,0,0,1
67580887923,0,-1,-2,2,-1,-2,-2,0
67580895425,0,-2,2,-1,0,0,-1,-1
67580895425,-2,-2,-2,-2,-4,-3,-2,-4
67580910859,-3,4,-1,-1,-1,-2,-2,-2
67580910859,-1,0,1,1,0,0,-1,-1
67580911765,-2,-2,-1,-2,-3,-1,-2,-1
67580911765,-2,-3,-2,-1,-2,1,-1,-1
67580925269,-2,-3,0,-1,0,-3,0,-1
67580925269,-3,-1,-3,-3,2,-2,-2,-1
67580932893,0,-2,0,-2,-2,-3,-2,0
67580932893,0,0,0,-2,-1,1,0,0
67580947837,1,1,0,-1,-2,1,1,-1
67580947837,-1,-2,-2,-1,-1,-1,-1,-2
67580955347,0,-1,-1,0,3,1,2,-1
67580955347,0,-1,-1,-2,-3,-2,-1,-2
67580970378,0,-2,-2,-3,-2,-2,-2,-1
67580970378,1,-1,0,-1,1,1,0,0
67580978548,-2,1,-1,-1,-2,0,-1,0
67580978548,-1,-2,-2,1,1,1,-1,0
67580985373,-1,-3,-1,-2,-2,0,-1,-2
67580985373,0,-1,1,0,-3,0,0,-1
67580992954,-2,-2,-1,-3,-3,-4,-2,0
67580992954,-1,0,-3,0,1,1,2,0
67581007841,0,-1,-3,-1,0,0,-1,-2
67581007841,0,-3,-1,-1,-2,1,0,-1
67581015330,-1,-2,0,0,-1,-3,-2,-1
67581015330,0,-1,-2,-1,-2,-1,-2,0
67581030390,-1,-1,-1,-1,-2,-2,1,-1
67581030390,0,-5,-3,-2,-3,0,-1,-1
67581038389,-1,0,-2,0,3,1,-1,1
67581038389,1,-2,-1,-2,0,-3,-2,-2
67581045391,-1,0,0,3,-1,0,0,-2
67581045391,-2,0,-1,0,-1,-2,-1,-1
67581052978,-2,-3,-1,-3,-3,-1,-2,0
67581052978,-1,1,0,-1,-1,-3,-1,0
67581068004,-1,0,0,0,0,-2,-2,-1
67581068004,-3,-1,-1,-2,-1,-3,-2,-2
67581075419,0,-2,-1,2,0,0,0,-1
67581075419,0,-1,-2,0,0,0,-1,-2
67581090431,-2,-2,0,-2,-3,-2,-2,-1
67581090431,0,-1,0,0,-2,0,-2,-1
67581098718,1,0,-3,-3,-4,-1,-1,-1
67581098718,-2,-2,-1,0,0,-1,0,0
67581105341,-2,-3,0,0,-1,0,-1,1
67581105341,0,0,-1,0,1,0,-1,-2
67581112979,-1,0,-2,-1,-2,-1,-1,-1
67581112979,-1,1,-2,-1,-3,-2,-1,-2
67581127894,0,0,-2,-2,-2,-2,-1,-1
67581127894,0,-2,-1,0,-3,-2,0,0
67581135185,-1,-2,1,-2,1,0,-2,-1
67581135185,-2,1,0,0,1,0,1,-1
67581150428,-2,-1,-2,-1,-1,-2,0,-1
67581150428,0,0,-1,-1,-2,-1,-1,0
67581158647,-1,-1,-1,-1,-1,-2,1,-1
67581158647,-1,-1,-1,-2,-4,-3,1,-2
67581173523,1,-2,-2,-1,3,1,0,-1
67581173523,-1,1,-3,-1,1,1,0,0
67581174227,-2,-1,-1,-2,-1,0,-2,-1
67581174227,-1,-1,-1,-2,1,1,-1,-1
67581187775,-1,-1,-2,0,-3,-2,-4,-1
67581187775,0,0,0,0,-1,-2,-2,0
67581195445,0,-1,-1,0,1,-1,1,1
67581195445,-1,-2,0,-2,-1,-1,-2,-1
67581210406,-1,-1,-2,0,-1,1,0,0
67581210406,-2,-1,0,-1,0,-1,-1,1
67581218157,0,-1,-2,-1,-2,-2,-2,-1
67581218157,-1,-3,-1,-2,-2,-2,0,-1
67581233583,-2,0,-1,1,-2,-1,-1,-1
67581233583,-2,-1,-2,-1,0,0,-1,0
67581234263,-1,-1,-1,-1,0,0,-1,-2
67581234263,0,-1,-2,-2,-3,-1,-2,-1
67581247890,-1,-3,-1,-4,-2,-4,-3,-1
67581247890,-1,-2,-2,-1,3,1,1,0
67581255414,-2,-1,0,0,1,0,1,-1
67581255414,0,2,-1,0,1,0,-1,0
67581270319,-2,-1,-1,-2,-1,-2,-1,-1
67581270319,-1,0,1,-3,-2,-2,-3,-3
67581278545,-1,-1,-3,-2,-2,-1,0,-1
67581278545,-1,0,-1,-1,-2,1,-2,0
67581293478,1,-1,-1,0,-1,0,1,1
67581293478,-1,-2,-2,-1,-1,0,-1,1
67581294308,-2,-1,-1,-1,-2,-1,-2,-2
67581294308,-2,-2,0,0,-2,0,-3,-1
67581307888,0,0,-1,-1,-1,-3,-2,0
67581307888,0,-2,-2,0,0,0,1,-2
67581315253,1,0,-2,-1,-2,-2,-1,0
67581315253,-1,-2,1,0,0,-1,0,1
67581330313,0,-1,-1,-1,1,1,-1,-1
67581330313,-2,0,-3,-2,-2,-3,-2,-1
67581338479,0,-1,0,-1,-1,-1,-3,-1
67581338479,-1,-1,-2,-1,1,-2,-1,-1
67581353481,-1,0,-2,-1,-1,-1,1,-2
67581353481,-1,-2,1,-1,0,-1,0,0
67581354173,-1,0,-3,0,-2,-1,-2,0
67581354173,-1,0,-1,-2,-2,-2,0,-1
67581367896,-2,0,-1,-1,-1,-1,0,-1
67581367896,-1,-1,-1,0,2,0,2,0
67581375367,-1,-1,1,-1,-3,-2,0,-2
67581375367,1,-1,-1,2,0,0,-3,-1
67581390408,-1,-2,-1,-2,-3,0,-2,0
67581390408,-2,-2,-1,0,-5,-3,-2,-2
67581398578,0,0,-3,0,0,0,-1,-2
67581398578,-1,-1,-1,-1,0,1,1,-1
67581413476,0,0,1,1,1,-1,-1,-1
67581413476,0,0,-1,-1,-2,-1,-2,-1
67581414230,-1,-1,1,-2,-4,-2,-2,-2
67581414230,-1,-1,-3,-2,-2,-3,-1,-2
67581427942,-1,0,-1,1,3,1,1,1
67581427942,0,-1,-1,-2,-1,-1,-1,-2
67581435387,-1,-1,-1,0,0,0,-1,-1
67581435387,0,-1,-2,-4,-3,-2,-2,0
67581450453,-1,-2,0,-2,-2,-2,-3,-1
67581450453,0,0,-2,-1,-3,-2,-1,-2
67581458597,-1,-2,0,-1,3,1,2,1
67581458597,0,0,-2,-1,-2,-2,-2,-3
67581473637,-1,-2,-1,0,-1,-1,-2,-2
67581473637,-1,-1,-2,-3,-1,-1,-1,-2
67581474183,-1,-1,-2,0,0,-1,0,-1
67581474183,-2,0,-1,1,1,0,0,0
67581487965,-1,-1,1,0,-1,-2,-1,0
67581487965,-1,-1,1,-1,-1,0,0,-1
67581495438,0,-4,0,-1,-3,0,-1,-1
67581495438,-1,0,0,-2,-1,-2,-1,0
67581510418,-1,-1,-3,-2,-1,1,-2,-2
67581510418,0,0,-2,-1,0,-2,-3,-2
67581518654,-2,0,-1,-1,-2,-1,-1,-1
67581518654,0,-2,0,1,-1,0,-1,-2
67581533608,-1,-1,-1,-1,-2,-2,1,0
67581533608,-2,-3,-3,-1,0,0,1,-1
67581534148,-2,0,-1,-1,-2,-2,-2,2
67581534148,0,0,0,-1,-1,0,-1,-2
67581547861,0,-2,-1,0,-1,1,-2,-1
67581547861,-1,1,0,0,2,0,0,-1
67581555313,-1,1,-2,-1,-2,-2,0,-3
67581555313,-2,-2,-2,-1,0,-1,1,-1
67581570347,-1,0,-1,0,-2,-1,-1,-1
67581570347,-2,-2,-1,0,-3,0,1,1
67581578569,0,0,-1,0,-2,-1,-1,-1
67581578569,-1,-1,-4,0,-1,-1,-2,0
67581593387,-1,0,0,-2,-1,-1,0,-2
67581593387,-1,-1,0,0,1,-1,0,-1
67581594111,-1,-1,-1,-1,1,-1,-2,-2
67581594111,0,-1,0,-2,-2,-2,0,-1
67581607763,0,0,-2,1,-1,-1,1,1
67581607763,0,0,-1,-1,-2,-1,0,0
67581615402,-1,-2,0,-1,-3,-2,-2,-2
67581615402,0,-2,-2,-1,-2,-1,-1,-1
67581630363,-2,-1,-1,-1,1,0,-1,-2
67581630363,0,1,0,-1,-1,-1,-3,0
67581638512,-3,0,-1,-1,0,-2,-1,-1
67581638512,-2,-1,-1,0,-3,-2,-1,-1
67581653412,-2,-1,0,-1,2,-2,0,-1
67581653412,-1,-1,0,0,1,0,-1,0
67581654174,0,-2,-2,-1,0,1,-1,-1
67581654174,-3,-1,1,-1,-1,-1,-1,-1
67581667907,0,-1,-1,0,-1,-3,-1,1
67581667907,-1,-1,-2,0,-2,-1,-3,-2
67581675395,0,-1,-1,-1,1,0,0,0
67581675395,2,-3,-1,-2,-1,1,-1,0
67581690320,0,-2,-2,-1,0,-1,0,-1
67581690320,-1,-1,1,-2,-1,-2,-2,-1
67581698633,-1,-2,-1,-1,-2,0,-2,-1
67581698633,0,0,0,-1,0,0,-1,-1
67581713564,0,0,-2,-4,-4,-1,-1,-1
67581713564,0,-1,-2,0,-2,-2,2,-1
67581714132,0,-2,-1,0,1,1,0,-1
67581714132,-2,-1,-3,0,0,-2,-1,-1
67581736106,-2,-3,0,-1,0,0,-1,-2
67581736106,-2,-1,-1,-2,-2,-2,-3,-1
67581736721,0,-1,-2,-1,-1,-3,-1,-1
67581736721,-1,0,-2,-1,1,0,-1,0
67581750407,0,-1,-1,0,-1,0,-2,-2
67581750407,0,-1,0,0,0,0,0,-1
67581758645,0,0,0,-2,-1,-3,-3,-1
67581758645,-1,-1,-1,-3,-1,-1,-1,-2
67581773552,0,-1,0,-3,-1,-2,-2,0
67581773552,-1,-1,0,-1,-1,0,-1,-1
67581774142,-1,-1,0,-2,-3,-1,-2,-1
67581774142,-2,-3,1,-1,-1,-1,0,-1
67581787957,-1,1,0,-2,0,1,1,0
67581787957,0,-1,-1,-2,-1,0,-1,0
67581795296,-3,-1,-2,0,-2,-1,-1,-1
67581795296,-2,-1,-1,-1,-3,-3,-2,0
67581810300,0,0,-1,0,1,2,1,0
67581810300,1,-1,-1,-2,-2,-2,-1,-2
67581818667,-1,0,-3,0,0,1,1,-1
67581818667,0,0,0,-1,-3,-4,-2,-2
67581833600,-1,1,-3,0,0,-3,-2,1
67581833600,1,0,0,0,-1,1,1,0
67581834270,0,0,-1,1,-2,0,0,0
67581834270,-2,-1,-1,0,-1,0,-2,-1
67581847854,0,-1,-2,-2,-2,-1,-1,-1
67581847854,-1,-2,-1,-2,-2,-2,-2,-1
67581855419,-3,-2,-1,-2,0,-2,0,1
67581855419,0,-1,-2,-1,0,1,-2,1
67581870416,-1,-2,-1,0,-2,-1,-2,0
67581870416,-1,-1,0,-2,-1,0,1,-1
67581878578,1,0,-1,-1,0,-1,0,-3
67581878578,-1,1,-1,0,0,-1,0,-3
67581892972,-3,-2,-1,-2,-1,0,-1,-2
67581892972,0,1,-1,-2,1,0,-1,-1
67581901122,0,-1,-1,-1,0,-1,0,-1
67581901122,-2,-2,0,-1,-1,-1,0,-1
67581907726,-1,-2,1,0,-3,-1,-1,-1
67581907726,-2,0,0,1,-1,-1,0,0
67581915487,-1,0,0,-1,-1,0,-1,0
67581915487,0,0,-1,-1,-1,0,-2,0
67581930415,-1,-1,-1,-1,-3,-3,-2,0
67581930415,-1,-2,-3,-2,-2,-2,0,-2
67581938651,-2,-1,-1,-2,0,0,-1,0
67581938651,0,0,-1,0,-1,0,0,-1
67581961683,1,-1,-2,0,-1,0,-2,-3
67581961683,-1,-2,-4,-1,-2,-1,-3,-1
67581962433,0,0,0,-1,-1,-1,-1,-1
67581962433,-1,-2,-1,1,-1,-1,-1,-1
67581967804,-1,-1,0,0,0,1,1,-3
67581967804,-1,-1,-1,1,-2,-2,-2,-1
67581975424,1,-4,0,-3,-2,-1,-1,0
67581975424,-1,-1,-1,-2,1,0,-1,0
67581990362,-2,-1,-2,0,-1,-1,-1,-1
67581990362,-2,-1,-1,-2,0,0,0,-1
67581998519,-3,-1,-1,-1,-2,-2,0,-2
67581998519,0,0,-1,-1,0,-1,0,-1
67582012693,-2,-1,-1,-1,2,0,0,1
67582012693,-2,-2,-2,0,0,-2,-2,0
67582020809,0,-1,-2,-2,-2,-1,-2,0
67582020809,0,-3,-3,-2,-3,-1,-1,0
67582027917,-1,-1,0,-1,-1,-1,0,-1
67582027917,1,0,0,1,-1,-1,0,-1
67582035381,-1,-1,-1,-1,-2,-2,1,-1
67582035381,-1,-2,-2,0,-3,-2,-2,-2
67582059231,0,-1,1,0,0,0,0,-1
67582059231,-1,0,-1,0,-1,0,-1,0
67582059899,-1,0,-1,-1,0,0,-1,0
67582059899,-1,0,0,-2,0,-1,0,0
67582072898,0,-1,-2,-3,-2,-1,0,1
67582072898,-2,-1,0,-3,-1,-3,-2,-2
