timestamp,emg1,emg2,emg3,emg4,emg5,emg6,emg7,emg8
67843643951,-1,0,-2,-3,-3,-3,-2,-1
67843643951,-1,0,-2,-1,-2,-1,1,-2
67843644765,-1,-2,-1,0,-2,-2,-1,-3
67843644765,0,-1,-1,-3,-2,-2,0,-1
67843645694,-1,-1,0,0,1,-1,-1,0
67843645694,-1,0,-2,0,-1,1,-1,0
67843650922,-1,-1,-1,0,-1,0,-1,1
67843650922,-2,-1,0,-2,-2,2,-2,-1
67843657336,0,-2,0,-2,-3,-1,-2,-2
67843657336,-1,-3,0,-2,-1,-3,-3,-1
67843666018,0,-1,-2,0,1,0,0,-1
67843666018,-1,-1,-4,0,3,-1,-1,-3
67843674539,-1,0,-1,0,1,-1,-2,0
67843674539,0,-2,-2,-1,0,1,-1,-1
67843687115,-2,-2,-2,-1,0,-2,-1,-1
67843687115,-2,-1,-1,-1,-5,-5,-4,-3
67843699273,-2,-2,-3,-1,1,1,2,-1
67843699273,0,-2,-1,-1,-2,-2,-2,0
67843702087,1,0,0,-1,-3,-2,-1,0
67843702087,-1,-1,-1,0,1,-1,-1,-1
67843717447,-2,-1,0,0,0,-1,-1,-2
67843717447,-1,0,-1,-3,-3,-1,0,0
67843764092,-1,-2,0,-1,0,-1,-1,-1
67843764092,1,-1,-2,-2,-1,0,-1,0
67843764910,-2,-2,0,-3,-1,-1,-1,-1
67843764910,-1,0,-1,-2,-1,-2,-1,0
67843765532,-1,-1,-1,-2,-2,-4,-1,-1
67843765532,0,0,-1,-1,1,0,-1,0
67843766549,0,0,-1,-1,0,1,0,-1
67843766549,-1,-3,-2,-1,-2,0,-1,0
67843777119,0,-2,-2,0,-1,-1,-2,-2
67843777119,-2,-1,-1,-1,0,-1,0,-2
67843784637,-1,-1,-1,-1,-1,-2,0,-1
67843784637,-1,0,0,-1,2,-2,0,-1
67843793423,0,-1,-3,-1,-1,-1,0,1
67843793423,1,-1,-1,-1,-3,-3,-3,-2
67843807141,-1,-1,-1,0,1,0,0,-1
67843807141,1,-1,0,-2,-3,-4,-2,-3
67843815954,-1,-1,-1,1,0,2,1,-1
67843815954,-2,0,0,1,2,0,0,-1
67843822147,-1,-1,-1,-1,-2,-1,-1,1
67843822147,-1,-1,-2,-1,-1,0,-2,-1
67843837137,0,-1,0,-2,-2,-1,-1,1
67843837137,-1,-1,-1,-2,-3,-2,-1,-1
67843844560,-1,-1,0,-1,-2,-1,-1,-2
67843844560,-1,-2,0,1,3,1,2,-1
67843853455,-3,-1,-2,0,2,-1,-1,-2
67843853455,-1,-1,-1,-2,-1,0,0,1
67843867143,0,0,-1,-1,-3,-4,-1,-1
67843867143,0,0,0,-1,-1,0,-1,-2
67843875992,-1,0,-1,0,-2,0,-2,-2
67843875992,-1,-1,0,-1,-1,-2,-2,0
67843882183,0,-1,-2,-1,2,2,1,0
67843882183,-2,-2,-1,0,1,-1,-2,0
67843905099,-2,-1,-1,-3,-4,-1,-1,-3
67843905099,-3,-1,-2,-1,0,-2,0,-1
67843906118,-2,0,-1,-1,0,1,-2,-2
67843906118,-1,0,-3,0,-1,-2,-2,-2
67843919454,-1,-1,-1,0,0,0,0,0
67843919454,-1,-1,-2,0,-4,-2,-1,-3
67843927087,-1,-2,1,1,0,-1,-2,-1
67843927087,0,-1,0,-1,3,1,1,0
67843936049,-1,0,0,-1,-2,-2,-1,0
67843936049,-1,0,1,-1,1,0,-1,-1
67843942177,-1,-1,-1,-1,-1,-3,0,-1
67843942177,-2,-1,0,-2,-5,-1,-2,0
67843957195,0,-2,-1,0,0,-3,-1,-2
67843957195,-1,0,0,-1,1,1,1,0
67843964704,-1,1,-2,0,-3,-1,-2,-1
67843964704,-1,-3,-3,-1,-1,-2,-1,0
67843980974,0,1,1,0,-2,-1,-4,0
67843980974,-1,-1,-1,-2,-2,-1,-2,-2
67843987179,-1,-2,0,0,-1,0,-1,-1
67843987179,0,-1,-2,-2,-1,-3,-1,-2
67843995989,-1,-1,-1,-2,-2,-1,-1,-2
67843995989,-1,1,-1,-1,0,0,-1,0
67844001930,-1,-3,-2,-2,-4,-3,-2,0
67844001930,-3,-1,1,-1,-1,0,0,-2
67844017187,0,0,0,0,1,2,1,0
67844017187,-2,-2,0,0,0,-1,-1,0
67844024659,0,0,0,-1,1,-3,-2,0
67844024659,0,0,-2,0,-2,-3,-3,0
67844033505,-2,-1,-1,1,0,3,1,-1
67844033505,-1,-2,-2,-1,-3,-3,-2,-2
67844047779,-2,-2,-1,-1,1,-3,-3,-1
67844047779,0,-1,0,0,-1,-2,-1,0
67844054475,-1,0,-3,-3,-1,-3,-1,-1
67844054475,-1,-1,-2,1,1,1,0,0
67844061926,-2,0,-2,-2,-2,-1,-1,0
67844061926,-2,-1,-1,0,0,0,-2,-1
67844077123,0,-1,0,0,1,0,-2,-1
67844077123,1,-1,-1,-1,-2,-1,0,-1
67844084702,0,-2,0,-2,-3,0,-1,-2
67844084702,-1,-2,-3,-4,-7,-4,-3,-1
67844093446,-2,0,0,-3,2,0,0,0
67844093446,-2,-1,0,-2,-8,-7,-4,-2
67844107772,-1,0,-2,1,2,2,3,1
67844107772,0,-1,-1,-1,-5,0,-1,-2
67844114487,-1,0,1,-1,-1,-3,-2,-1
67844114487,-1,-1,0,0,1,-1,-2,-1
67844121998,-1,-1,0,-2,-1,-3,-2,-1
67844121998,-1,0,2,3,7,5,1,1
67844137202,-1,-2,-12,-6,-5,-2,-1,1
67844137202,-2,-1,0,0,-2,0,0,-1
67844144659,-1,-1,-1,-1,0,-1,-1,-1
67844144659,0,0,0,-1,4,2,1,0
67844153536,0,-3,2,2,1,-1,-2,-2
67844153536,0,0,0,1,-3,-4,-3,-1
67844167842,-1,2,4,2,-1,-1,-2,-1
67844167842,-1,-2,-4,-6,-1,-3,-6,-4
67844174662,-1,-1,8,0,-7,-1,1,-1
67844174662,1,-1,-6,0,4,4,1,0
67844182174,-1,1,5,2,-5,-2,-1,-4
67844182174,0,0,4,4,0,-2,-1,1
67844197205,-2,-1,-7,-3,2,1,-1,1
67844197205,0,-2,-3,-4,0,-1,-1,0
67844204745,1,-1,-10,-6,0,0,2,2
67844204745,-3,1,30,14,-2,-3,-5,-3
67844213467,-3,-5,-24,-3,-5,-4,-1,-1
67844213467,1,3,3,-2,-2,-2,-1,-1
67844227140,-1,-4,-14,-14,-6,-3,-5,-2
67844227140,0,-1,-8,-2,1,4,3,1
67844235998,2,4,9,1,3,3,-1,1
67844235998,-3,-3,-2,-3,-3,-3,-5,-4
67844241984,-1,-1,-2,-2,-7,-1,1,-2
67844241984,-1,-2,-7,-6,1,-3,-2,-2
67844257197,-2,-1,0,0,0,-1,-3,-3
67844257197,0,-3,-6,-5,-2,1,1,0
67844264728,0,-3,3,2,2,-1,-2,-1
67844264728,-1,2,-3,-1,-4,-1,1,-1
67844273604,-2,0,6,2,4,-3,-2,-2
67844273604,-2,-2,-4,-1,-7,-5,-4,-3
67844287213,-1,0,-5,2,5,3,1,-1
67844287213,-2,-2,-4,-8,-1,-1,0,-2
67844296035,0,-2,-1,-5,2,2,-3,-1
67844296035,0,1,27,8,-2,1,-1,0
67844301945,-2,-2,-21,-7,2,0,-1,1
67844301945,-3,-1,-12,-6,-7,-5,-2,-2
67844316977,-1,-1,2,0,-4,-7,-4,-3
67844316977,0,-2,-10,-5,1,0,-1,0
67844324657,-1,0,15,7,-1,-2,-3,-3
67844324657,-1,-3,-1,0,3,5,2,-2
67844333457,-1,1,-1,-2,-4,-4,-4,-1
67844333457,-2,0,-5,0,3,1,1,-1
67844347075,2,0,-3,-4,1,1,0,0
67844347075,-1,-1,-1,0,-2,-6,-6,-3
67844356020,1,1,9,8,3,6,4,1
67844356020,0,-6,-15,-8,-2,-3,-5,0
67844370353,-1,3,10,4,-2,-3,-3,-1
67844370353,-1,0,-18,-10,-3,0,-3,0
67844376992,2,-1,-6,-3,0,1,3,1
67844376992,-1,-1,4,3,3,3,1,-2
67844384653,-2,-4,-7,-3,2,1,0,0
67844384653,1,2,24,10,-7,-2,0,1
67844393495,1,4,8,0,-5,-5,-4,-3
67844393495,-2,-2,-20,-12,3,4,2,0
67844406954,1,2,5,5,0,-2,-2,-1
67844406954,0,-1,-3,-3,3,3,2,0
67844415977,-5,-4,-2,-3,-6,-6,-3,-3
67844415977,-1,2,12,4,-1,0,2,0
67844430314,-2,-3,-15,-13,-8,-4,-3,-2
67844430314,0,-1,3,2,9,5,2,0
67844437027,0,-1,3,0,-4,-2,-1,-1
67844437027,-2,0,2,-1,4,-2,-1,-2
67844444665,0,-1,6,6,-4,-1,0,-2
67844444665,-2,-2,-10,1,-6,-6,-4,-3
67844453556,-1,-3,-2,-4,1,3,0,-1
67844453556,1,4,-1,4,1,-1,-1,0
67844467136,-1,-2,7,1,-1,0,1,-1
67844467136,-1,-1,-15,-6,-2,-2,0,1
67844475986,-2,-2,-2,-2,-2,-3,-2,-3
67844475986,-2,-2,-3,-3,-5,-2,0,-1
67844490434,-1,-2,2,1,3,3,-1,1
67844490434,1,3,5,7,-1,1,-2,-1
67844497318,-6,-2,-11,-6,-1,-2,1,3
67844497318,-2,-2,-4,-5,-5,-4,-4,-9
67844504626,-3,2,-1,0,2,-1,1,3
67844504626,-3,-6,-7,-7,-2,-2,3,-7
67844513563,8,12,10,7,0,2,-2,-1
67844513563,0,-15,12,8,2,1,0,-1
67844527092,0,-7,-46,-21,-8,-4,-8,-2
67844527092,2,0,14,11,1,-1,5,-2
67844535985,3,-4,-23,-6,0,-1,0,8
67844535985,-20,-3,9,4,-4,-3,-3,-9
67844550752,-11,1,1,-4,-1,-1,-1,-6
67844550752,1,1,5,-4,-5,-5,-5,5
67844556957,20,2,-3,0,5,4,1,4
67844556957,6,5,1,7,4,5,2,4
67844573461,-1,-8,8,4,-1,-2,0,-2
67844573461,-14,0,-22,-9,-3,-3,1,-1
67844574982,-5,-1,17,4,-1,-4,-2,-1
67844574982,3,10,-11,-4,-2,-4,-6,-4
67844587195,-1,-7,6,1,1,3,3,0
67844587195,4,-1,16,14,2,0,-2,1
67844595969,-11,-7,-19,-14,-7,-4,-3,-4
67844595969,5,0,-6,-1,1,1,3,2
67844610145,-8,7,13,-2,-2,-3,0,0
67844610145,18,-4,-17,-5,-1,-1,-5,8
67844617152,-31,-3,0,-1,-1,-1,-1,-12
67844617152,3,-4,6,-1,-8,-10,-10,-10
67844624616,-2,-3,-8,8,0,0,3,-3
67844624616,-5,4,8,-1,1,2,2,-3
67844633457,-13,-4,2,1,-1,-3,-1,-2
67844633457,7,4,-6,2,3,5,5,1
67844647094,11,4,2,-7,-4,-4,-9,-11
67844647094,9,-7,1,1,-2,1,0,21
67844655869,3,-5,0,-5,-1,-3,-4,-32
67844655869,-20,-2,-1,-3,-2,-1,-4,0
67844670309,5,3,-4,10,6,1,2,1
67844670309,-6,1,4,-8,-7,-3,-3,-1
67844677198,7,3,6,3,-3,0,-1,6
67844677198,0,-7,-4,-6,-3,-2,0,1
67844684616,-1,3,5,1,0,1,0,6
67844684616,-12,-5,-3,-4,-2,-1,-5,-18
67844699448,5,-2,0,2,-2,-3,5,12
67844699448,4,2,4,0,0,1,6,6
67844707125,-19,-4,6,0,-2,-2,-4,-2
67844707125,15,6,-2,2,2,0,-2,2
67844716000,12,-2,-3,-7,-1,1,-2,-4
67844716000,0,0,-11,-3,2,-1,1,-5
67844730284,14,0,14,4,-1,-4,-3,16
67844730284,2,0,-1,2,0,-4,-3,-5
67844737115,-15,1,2,4,0,1,-2,16
67844737115,2,-4,-2,-2,1,1,1,-21
67844752874,-3,0,4,-2,-3,-2,-1,-2
67844752874,-5,-4,-17,5,3,3,0,-2
67844759634,10,3,5,-15,-1,-2,0,-3
67844759634,-1,-4,-3,0,1,-2,-1,7
67844767226,1,0,1,2,1,1,0,-4
67844767226,-6,0,2,-4,-4,-1,-1,-5
67844776021,-3,0,-2,4,-3,-3,-2,-2
67844776021,-4,1,-2,-2,-3,-4,-5,4
67844790339,-2,-3,-5,-2,-1,-2,-3,0
67844790339,-8,0,-2,-5,0,-1,2,-7
67844797274,8,-4,-4,3,-2,-2,-3,0
67844797274,4,0,4,-4,-3,-4,-5,0
67844812851,3,-1,0,6,6,5,5,8
67844812851,-1,0,-1,-5,-1,0,-4,-5
67844819632,2,-5,1,3,3,3,0,1
67844819632,9,1,3,1,-1,1,-1,2
67844827179,-2,-7,-1,-6,-4,-2,-2,-7
67844827179,-7,0,0,-4,-2,-4,-3,-1
67844835933,0,-2,-2,1,1,0,-2,-3
67844835933,-3,4,-4,1,-3,0,1,4
67844850312,4,6,0,-2,-1,-1,0,-2
67844850312,0,1,6,-1,-1,1,1,2
67844857225,-1,-8,-1,3,0,1,-2,-4
67844857225,-5,2,-7,-1,0,-1,-1,1
67844872804,-4,-3,-4,-1,-1,-2,0,-3
67844872804,-1,-2,1,-2,-1,-1,1,-2
67844879638,-3,1,-2,-1,-4,-2,0,2
67844879638,-5,-4,1,-1,-3,0,-1,0
67844896090,0,0,0,-6,-8,-4,-3,-6
67844896090,2,-5,-3,0,3,-4,-1,5
67844897459,-3,1,0,3,8,3,3,-1
67844897459,-2,0,-1,-5,-5,-3,0,-1
67844910347,3,0,1,6,-2,-1,1,0
67844910347,-9,-2,1,-6,-7,-1,-1,-3
67844917164,-3,0,-8,-2,-4,-3,-2,2
67844917164,2,1,8,-3,-5,0,0,0
67844932691,-2,-2,-8,-6,6,0,0,-2
67844932691,-1,-3,6,2,-5,-2,-2,-4
67844947219,0,5,-5,2,4,-1,0,-2
67844947219,-2,-3,-2,0,-10,-4,-3,0
67844955887,1,1,2,11,21,6,1,-1
67844955887,0,-4,-5,-2,2,2,-1,-2
67844957410,1,-1,4,-2,0,-3,-1,1
67844957410,-2,0,2,0,-2,-3,-3,-1
67844970625,-3,-2,-4,-4,-8,-7,-3,-1
67844970625,1,-2,-4,-2,3,1,0,-6
67844977052,-3,1,4,0,-3,-2,-1,1
67844977052,0,-6,-6,-1,5,2,0,-5
67844992830,-2,-4,0,-4,-8,-5,-2,-1
67844992830,-12,1,-1,0,-1,-2,1,2
67844999769,7,0,-1,-3,-8,-2,-2,-5
67844999769,3,0,2,0,2,-3,0,4
67845015998,-1,1,-2,-1,-1,-2,0,-1
67845015998,1,0,-1,0,0,-1,0,1
67845017453,-2,-2,-2,-1,-4,-2,-1,-3
67845017453,0,-1,0,-1,2,2,0,1
67845029716,-1,-1,-1,1,-4,1,-2,-1
67845029716,3,2,-1,-3,-3,-3,-3,0
67845038454,-1,-1,-1,-1,1,2,-1,1
67845038454,-1,-2,-3,0,0,0,-2,-1
67845052895,-3,-2,-2,-3,-5,-2,-1,-1
67845052895,3,0,0,-2,-2,-1,-2,0
67845059602,-5,-2,-2,-1,1,0,2,-3
67845059602,-3,-2,-2,-1,-1,-2,-3,0
67845076107,1,0,-2,-2,-1,-1,-1,2
67845076107,0,-2,-1,-3,-3,-3,-2,-1
67845077427,-3,1,-1,-2,-3,0,0,0
67845077427,-2,-7,0,1,2,0,-2,-1
67845090382,1,2,0,-1,-2,1,1,-3
67845090382,1,-2,-2,0,0,-2,-1,-1
67845097138,-2,0,0,-1,-1,-1,-2,1
67845097138,-3,0,-1,-2,-1,0,1,-1
67845112659,-1,-2,0,-3,-5,-3,-4,-3
67845112659,0,-1,-4,-2,-1,-1,0,0
67845119460,-1,-1,1,2,1,2,1,-1
67845119460,1,0,-1,-3,-1,-2,-1,-2
67845135984,-2,-2,-1,-1,-1,1,0,0
67845135984,2,2,-3,-1,-2,-1,2,0
67845137354,-1,-5,-1,-4,-3,-3,-3,-3
67845137354,0,-1,0,-1,1,-1,1,2
67845150350,-1,-1,1,0,1,-2,-2,-2
67845150350,0,-1,0,0,2,1,0,-1
67845156994,0,0,-3,-2,-3,-2,-1,1
67845156994,-6,-1,0,-2,-1,-2,-3,-1
67845172843,0,-2,-2,0,0,1,-1,-1
67845172843,-2,-3,1,-3,-3,0,-2,-2
67845179650,0,0,0,-3,-2,-4,-1,-1
67845179650,0,1,-1,1,0,0,1,-2
67845195985,-2,-1,-2,-2,-1,0,0,-1
67845195985,-2,-2,0,-1,-2,-1,-2,0
67845197438,-1,-2,-1,0,-2,-2,-3,-1
67845197438,-1,-2,-2,0,0,0,0,-1
67845210182,0,-1,-2,0,-2,-3,0,0
67845210182,0,1,2,1,1,0,0,-2
67845217188,-1,-2,-1,-2,-3,-2,-2,-2
67845217188,1,0,-2,-3,-4,-2,-2,-1
67845232841,-1,-1,-1,2,2,1,1,1
67845232841,-2,0,-2,-1,1,-1,-1,-1
67845239671,-4,-2,-2,-2,-1,-2,-4,-7
67845239671,-2,1,1,0,0,0,-1,0
67845255930,2,-2,-1,-2,-3,-1,-2,0
67845255930,-2,-2,-2,-2,-3,-3,-4,-2
67845257418,1,-1,-1,-1,0,-3,-3,2
67845257418,-5,-1,-1,0,2,1,0,-1
67845270254,-1,-1,-2,-3,0,1,0,-2
67845270254,2,-2,0,0,1,2,1,1
67845277245,1,-1,-4,-1,-2,-1,1,0
67845277245,0,0,0,-2,-3,-1,-2,-3
67845293152,-2,0,0,0,-2,-2,-3,-1
67845293152,0,-2,-2,0,1,0,-1,0
67845299650,-1,-1,1,-1,2,1,0,0
67845299650,0,0,-3,-1,-1,-1,-1,-1
67845316054,0,-1,-2,-3,-2,-1,0,2
67845316054,-1,0,-1,-2,-4,-2,-2,-4
67845317459,-3,-1,0,-2,-1,0,-1,-4
67845317459,-1,-1,-2,0,-1,-1,0,1
67845330367,-1,-2,1,1,0,-1,0,0
67845330367,1,-1,-3,-2,-1,-2,1,0
67845337197,-2,1,-1,-1,1,0,-2,1
67845337197,-1,-1,-2,-2,-4,-3,-4,-2
67845352669,-1,-2,-3,-1,-2,-1,-1,-2
67845352669,-1,-2,1,-1,-1,-1,-1,-1
67845359667,-3,-2,-1,-1,1,0,0,-1
67845359667,-2,-1,-1,0,2,0,0,-1
67845376052,-1,0,-2,0,-1,-1,0,-2
67845376052,-1,-1,-1,-2,0,-2,-1,-2
67845377345,-1,-2,-1,-1,-3,-3,-1,-1
67845377345,1,-1,0,-2,0,0,-1,-1
67845389644,0,-2,-1,-1,-1,2,0,0
67845389644,-3,-2,-1,1,0,0,1,0
67845398608,0,-3,-1,-1,-1,-1,-1,-1
67845398608,-1,-1,-2,0,0,-1,-1,-1
67845412924,-2,0,-1,-2,-2,-1,-2,-2
67845412924,0,-1,-1,-1,-1,-1,0,1
67845419621,0,-2,-1,-1,-1,0,0,0
67845419621,0,-1,-1,0,2,2,1,-1
67845435997,-2,-1,-1,-1,-1,-2,-2,-4
67845435997,-3,-1,-1,-4,-3,-1,-3,-1
67845437422,-1,0,-1,0,-2,0,-1,-2
67845437422,-4,-1,0,-1,-2,-1,0,-2
67845457706,0,-1,-3,-2,-1,-3,-2,0
67845457706,-3,-2,0,3,2,1,1,-1
67845458465,0,-1,1,0,-1,-1,-2,0
67845458465,-2,-1,-2,0,-2,-2,-1,-1
67845473514,0,-1,-1,-2,-2,-2,-3,-4
67845473514,-3,-2,-3,-2,-2,-1,-1,-3
67845479631,0,-1,-1,0,-2,-2,1,-1
67845479631,0,-1,-1,-2,-2,0,0,-2
67845495359,0,-1,-2,0,0,-2,-2,-1
67845495359,1,-2,-1,-1,0,0,1,0
67845495964,-1,1,0,1,0,-1,-1,-1
67845495964,-1,-2,0,-2,1,-1,-2,-1
67845517718,-1,-2,-1,-2,-3,-1,-1,0
67845517718,0,0,-2,0,-2,0,1,-2
67845518385,-2,-1,-1,-1,-2,0,-1,-1
67845518385,0,1,0,0,0,-1,0,-1
67845533471,0,-1,-1,0,-1,-1,0,-1
67845533471,1,0,0,-2,-1,-2,-4,1
67845547875,-3,-2,-2,-1,0,2,1,-6
67845547875,1,-2,-2,-2,-3,-3,-3,-1
67845555061,0,0,0,0,2,-2,-1,0
67845555061,-2,-3,1,2,1,2,3,2
67845555974,-1,-1,-2,-3,0,-2,-3,1
67845555974,1,-1,-2,0,-3,-1,-3,-1
67845577657,-2,-1,-1,-2,-4,-1,2,-2
67845577657,-1,2,-2,-2,-3,-2,-2,-1
67845578472,0,-1,0,1,1,1,0,1
67845578472,-2,-2,-3,-1,0,2,0,-2
67845593479,0,0,-1,0,1,1,-1,-1
67845593479,0,-2,-2,-2,-1,-3,-2,-3
67845599695,-2,0,0,0,-2,-4,-2,1
67845599695,0,-1,0,-1,-1,-1,-1,-1
67845615998,-2,-2,-1,0,0,0,-1,-1
67845615998,-1,-1,-1,-3,0,0,0,-2
67845622092,1,1,-1,-1,-1,-3,-1,0
67845622092,0,0,-1,-1,0,-3,-2,0
67845639127,-4,-2,-1,-2,-2,0,0,-2
67845639127,-2,0,0,1,1,2,1,1
67845640071,-1,0,-2,-3,-3,-3,-2,0
67845640071,-1,-1,0,0,0,-2,-1,2
67845653513,0,-1,-1,0,1,-1,0,0
67845653513,-1,0,0,-1,-4,-2,-5,-2
67845659431,-1,-1,0,-1,0,-1,-2,-2
67845659431,-2,-1,-1,0,-3,-1,0,1
67845674538,1,1,-1,-3,-1,0,-2,-2
67845674538,-1,-3,1,-1,-2,-2,0,0
67845682110,0,-1,0,1,0,1,0,0
67845682110,-3,-1,-1,-2,-1,-4,-2,-3
67845697645,-1,1,-2,-1,-2,-2,-1,0
67845697645,0,1,-3,0,-2,-1,-2,-1
67845698568,-2,-1,-1,-2,-1,-1,0,-2
67845698568,-2,-1,-2,-1,-2,0,-1,-2
67845713510,-1,-2,-3,0,-3,-3,-1,0
67845713510,-1,-1,-2,-1,3,-2,0,1
67845719658,0,-1,-4,-1,0,-1,-2,-1
67845719658,0,-1,-2,-1,-2,1,-1,-1
67845734621,-2,-1,0,-1,-2,-3,-4,0
67845734621,1,-3,0,-2,-4,0,-2,-2
67845742106,-1,-1,-1,1,-1,-2,1,-1
67845742106,-1,0,-1,-1,-2,-1,-1,-2
67845757846,-1,-1,-1,-3,-3,-3,-2,-1
67845757846,-1,0,-1,-1,-1,-1,-1,0
67845758463,-1,0,0,-1,2,0,1,0
67845758463,-2,-1,0,0,-1,1,-1,-1
67845773564,1,-1,-1,-1,-2,-3,-1,-1
67845773564,0,-1,-2,-3,-4,-3,-3,-3
67845779629,0,-1,0,-1,2,1,0,2
67845779629,-2,-2,0,0,1,2,1,-6
67845802789,-1,-2,-1,-1,-1,0,1,-1
67845802789,-4,-1,-1,0,1,-1,0,-1
67845803403,2,-1,-2,-3,-4,-4,-4,0
67845803403,0,-1,-1,-1,0,-1,-1,0
67845817617,0,1,1,-2,-2,-1,-1,-1
67845817617,0,0,0,0,-1,0,0,-2
67845818600,-1,-2,0,0,0,1,-1,-1
67845818600,-2,-3,-1,-2,-3,-4,-3,-1
67845833449,-1,-2,-1,0,1,2,1,0
67845833449,-3,-1,0,0,-1,-2,-2,1
67845839664,-1,-1,-3,-3,-2,-2,-1,0
67845839664,0,-1,-1,0,1,0,2,0
67845854687,0,0,-1,0,-1,-1,-2,-1
67845854687,0,0,-2,-2,-1,-2,-1,-1
67845862118,-2,-1,-2,-1,-2,-2,0,-4
67845862118,1,0,-1,-1,-1,-2,-2,0
67845877637,-2,-1,-1,0,-3,-3,-3,-2
67845877637,0,0,-1,0,1,1,2,2
67845878375,-4,0,0,0,-1,0,-2,-4
67845878375,0,-1,1,-1,0,-1,-1,0
67845893386,1,-3,-1,0,-2,-1,-1,-2
67845893386,1,-1,-1,-1,-1,0,-1,-1
67845899415,-1,-1,-1,-2,-2,-4,-1,-1
67845899415,0,0,-1,-1,-3,-3,-1,-3
67845914406,0,1,-1,-1,2,-1,0,-1
67845914406,-1,-1,-1,-1,0,0,-1,-3
67845921922,-2,-2,-1,0,-3,-1,1,-1
67845921922,-1,0,-1,-2,-1,0,-1,0
67845937597,-1,-1,-1,-2,0,0,-1,1
67845937597,0,0,-1,-4,-3,-2,-4,-2
67845938335,-1,0,-1,-1,1,0,-1,-1
67845938335,-1,0,-1,-1,0,-2,-1,-1
67845953459,-2,-1,1,1,2,3,-1,-1
67845953459,0,-1,-1,1,-1,-2,-1,-2
67845959769,-1,-1,-1,-1,-1,-2,-2,-1
67845959769,-1,0,-1,-2,-3,-3,-3,-1
67845974628,-2,-2,-3,-1,0,-1,0,0
67845974628,1,-1,-1,-2,-3,-3,-2,0
67845982194,1,0,-1,-1,0,1,-1,-1
67845982194,0,-1,0,0,0,-2,-1,1
67845997598,0,-1,1,-2,1,-1,0,-3
67845997598,-2,0,-2,-2,-1,1,0,1
67845998375,1,-1,-1,-3,-3,-1,-1,-2
67845998375,-1,-2,-2,-2,-1,-1,-2,0
67846012175,0,0,0,-1,-3,-2,-1,-2
67846012175,-2,-1,-2,-3,-3,-2,0,0
67846019670,-2,-1,-1,0,0,0,-1,-1
67846019670,0,-1,-1,1,2,1,1,0
67846034677,-1,0,-1,0,1,-2,-2,0
67846034677,-1,-1,0,-1,-2,-2,-1,-3
67846042144,0,-1,0,0,-1,1,1,1
67846042144,-1,1,1,-2,-5,-3,-1,-2
67846057696,-1,-1,-1,-2,-2,-2,-2,-1
67846057696,-1,1,1,1,1,0,-1,-1
67846058449,0,-2,-1,-3,-2,-1,-1,-1
67846058449,-2,-1,-2,-1,-1,-2,-2,-1
67846072080,-1,-1,-1,0,1,1,-1,-1
67846072080,-1,-1,0,-2,-4,-2,-2,-1
67846079435,-1,0,-2,0,1,1,1,-1
67846079435,-2,-1,-1,0,-2,-2,-1,-2
67846094654,-1,-1,-2,-2,-2,-1,-1,-1
67846094654,0,-2,-3,0,-1,0,-2,0
67846101939,-1,-1,0,-1,-2,-1,-2,-1
67846101939,0,0,-1,-1,2,4,2,0
67846117822,-2,0,-1,-1,-3,-2,-2,-1
67846117822,-1,-1,-1,1,2,0,1,0
67846118362,0,0,0,-3,-2,-2,0,0
67846118362,-1,-3,-2,-1,-4,-2,-2,-1
67846132236,-1,0,-2,-3,-3,-1,-2,0
67846132236,-2,-3,-2,-1,2,1,1,0
