timestamp,emg1,emg2,emg3,emg4,emg5,emg6,emg7,emg8
68188650768,1,0,-1,0,3,0,0,0
68188650768,-1,-1,-2,-2,-4,-3,-2,-1
68188651361,-1,0,-6,-6,-3,-3,1,-1
68188651361,-2,-1,4,10,3,4,2,0
68188652221,-3,-1,-2,-3,-2,-3,-1,-1
68188652221,1,-1,0,-5,0,0,-2,0
68188653214,-1,0,-5,-5,0,-1,-2,-1
68188653214,-1,-1,2,1,-4,-5,-2,-1
68188663807,0,-1,-1,1,-1,-4,-3,-2
68188663807,-2,-1,0,1,1,0,2,-1
68188672493,0,-1,0,1,0,0,0,-1
68188672493,1,0,-4,-5,4,0,-1,0
68188680182,-1,0,0,0,-3,0,0,0
68188680182,-1,-1,-3,-3,-7,-7,-3,0
68188693839,-3,-1,7,6,5,4,0,-2
68188693839,-1,-1,-7,-8,-4,-1,0,-2
68188705332,0,1,0,1,0,-1,0,0
68188705332,-3,-4,-2,-1,1,0,0,-2
68188708831,-1,0,-2,0,-3,-4,0,0
68188708831,-4,-3,-1,-2,1,-1,-1,-1
68188723896,-2,-2,-1,-2,-1,0,0,-1
68188723896,-1,0,-1,-1,-3,0,-1,-1
68188732435,0,-2,2,-2,-4,-5,-3,-3
68188732435,0,-1,0,-2,-3,-3,-2,0
68188771915,0,0,-2,0,0,-2,-2,0
68188771915,-1,0,3,0,-1,-3,-2,-2
68188772866,0,-1,-2,-1,1,0,-1,-1
68188772866,1,-1,0,-1,1,0,1,-1
68188773573,-2,-2,-2,0,0,0,-1,-1
68188773573,0,-2,-2,-1,-1,1,0,-2
68188776849,-1,-1,0,-1,-2,-1,-1,-2
68188776849,0,0,1,0,-1,-1,1,0
68188783404,2,1,-3,-2,-1,-1,0,0
68188783404,0,0,0,1,1,-1,1,0
68188790948,0,-2,-2,4,-1,-2,-2,-1
68188790948,-1,-3,-2,-4,-2,-2,-3,-2
68188799972,0,-1,3,3,-3,0,0,-1
68188799972,-3,-1,-4,-5,-3,-4,-3,-2
68188813591,-3,-2,0,-1,1,1,1,-2
68188813591,-2,0,0,0,-3,-1,0,-2
68188822693,-1,1,-9,-11,1,-2,-2,0
68188822693,-2,-2,15,16,-2,-1,-3,-2
68188828577,0,0,-2,1,2,2,3,0
68188828577,-1,-2,-1,-1,-3,-4,-3,-1
68188843569,-2,-3,-2,-2,3,0,0,0
68188843569,-1,1,-4,-6,-1,0,1,0
68188851155,-1,-2,-2,-3,-1,-2,-2,0
68188851155,2,1,0,2,1,1,-1,-1
68188859969,-2,-2,-2,-2,-4,-2,-1,-2
68188859969,1,-1,-3,-2,-2,-2,-2,-2
68188873482,-1,1,-1,-5,-3,-1,-1,-1
68188873482,-2,0,-4,-4,-2,-1,0,0
68188882466,-2,-1,1,1,0,-2,-3,-3
68188882466,-1,-3,-3,-2,1,2,-1,-1
68188888396,-1,1,1,-2,-3,-3,-3,-3
68188888396,-2,-1,-1,-1,-2,0,-1,0
68188903458,-2,0,0,1,-2,-1,-1,-1
68188903458,1,-2,-1,-2,0,-1,0,-1
68188910925,0,0,-4,-4,4,3,4,1
68188910925,0,0,1,-1,-4,-3,-1,-3
68188919866,-1,-5,-5,-2,0,0,-2,0
68188919866,-2,1,2,-2,-1,-1,-3,-1
68188933387,0,-3,-3,-3,-4,-2,-4,-1
68188933387,-1,-1,-1,2,1,2,0,1
68188942457,1,1,4,1,2,0,-1,-1
68188942457,-1,-2,-7,-4,-1,0,1,1
68188948368,-1,-2,-2,1,-1,1,-1,-1
68188948368,0,-1,-1,-2,-2,-5,-3,-2
68188963616,-1,-2,2,3,-3,-3,0,-1
68188963616,0,-1,-6,-3,1,0,-1,-1
68188971090,0,1,6,3,-2,-2,-3,-2
68188971090,0,-1,-6,-2,0,2,2,1
68188979937,-1,1,6,7,-1,-1,-3,-2
68188979937,-2,0,-5,-4,-3,-5,-3,-3
68188993636,0,1,1,4,4,5,2,2
68188993636,-1,0,-4,-1,0,1,-1,-1
68189002450,1,1,-6,-4,-1,0,1,-1
68189002450,0,-1,7,3,-3,-7,-5,-3
68189008602,0,-2,-6,-3,-4,-5,-3,-2
68189008602,-2,0,9,4,-4,-5,-5,0
68189023413,-2,-2,-5,-7,2,3,3,0
68189023413,-1,0,-1,-2,-2,-2,-1,-1
68189031133,-1,0,0,-1,0,-2,-2,0
68189031133,-2,-1,0,-4,-6,-3,-4,-1
68189039949,-1,-1,0,1,-2,-2,0,-1
68189039949,0,0,-1,0,2,6,4,0
68189053698,-4,-2,-2,-2,-2,-2,-3,-1
68189053698,0,-2,-6,-3,2,3,2,0
68189062389,-2,-1,9,10,0,-5,-4,-4
68189062389,-2,0,1,1,-3,-1,1,2
68189068612,-2,-4,-7,-6,-1,2,0,-1
68189068612,0,-1,-1,-1,-3,-5,-4,-3
68189083618,2,1,-5,-3,2,4,2,2
68189083618,-1,-1,2,1,-1,-2,-1,0
68189091141,-2,1,1,-2,-1,-2,-1,-1
68189091141,0,-1,-3,0,-2,0,0,0
68189099981,-1,-1,-2,-4,0,3,-1,-2
68189099981,1,-1,2,3,1,0,-2,-2
68189113641,3,-1,-8,-7,-5,0,0,-1
68189113641,0,-3,1,7,5,0,-1,-3
68189122522,-3,0,3,-6,-7,-5,-5,-2
68189122522,-5,-8,-13,-14,-5,2,-3,-2
68189136714,-2,1,0,1,-1,-1,0,-1
68189136714,0,-1,-2,4,2,2,-1,0
68189143513,2,-1,-11,-3,0,-1,-1,2
68189143513,1,2,2,-1,-2,-2,0,1
68189151118,2,4,9,-5,-1,-4,-2,-1
68189151118,-5,-3,36,28,2,0,-4,-4
68189160042,2,-1,-11,-4,0,1,2,0
68189160042,-1,1,-3,5,3,0,-2,-1
68189173653,-4,-5,-9,-9,-3,-2,0,-2
68189173653,2,3,-2,-1,0,1,1,2
68189182455,-4,-2,1,-2,-1,-2,-2,0
68189182455,-3,-1,4,-2,-2,-2,-3,-7
68189196781,2,3,-3,6,-2,-3,0,0
68189196781,-2,-5,-11,-10,-2,1,1,2
68189203599,-2,-2,5,-2,-4,-2,-1,-2
68189203599,1,-2,-6,-2,1,-1,-2,2
68189211170,-10,-3,0,-3,-1,-2,-1,-1
68189211170,9,-2,-10,-15,-3,-1,-2,0
68189219944,1,0,7,8,1,-2,-2,-2
68189219944,-1,-2,7,8,2,1,2,0
68189233479,2,1,-14,-1,1,-1,-3,2
68189233479,-3,-3,-4,-10,-4,-5,-4,-1
68189242376,-11,2,1,5,0,2,0,-3
68189242376,-1,-5,2,-4,-2,-1,-1,1
68189256795,-4,1,0,5,3,7,1,-1
68189256795,0,1,-7,0,-2,-3,-3,-3
68189263642,4,-3,-4,-5,-2,-3,-3,1
68189263642,-2,0,4,1,-2,-2,-3,-3
68189271061,2,-5,-9,-5,-1,2,2,-1
68189271061,-4,-1,0,2,0,-1,2,-3
68189279947,0,1,-2,0,-1,-1,0,0
68189279947,1,8,-17,-7,-1,-2,-3,0
68189293664,-2,-15,32,11,-5,-4,-5,-7
68189293664,4,5,-3,-4,0,2,3,5
68189302412,1,-6,-4,-1,-2,-2,-3,-7
68189302412,-3,0,3,-6,-4,-1,-1,-3
68189316694,16,4,-9,0,4,1,1,3
68189316694,2,5,-1,3,-4,-2,-3,-4
68189323644,-21,-10,10,1,-4,-5,-4,-1
68189323644,9,3,-4,0,2,4,4,10
68189331048,4,-1,8,5,2,-1,-2,-10
68189331048,11,-1,-7,-7,-1,-3,-2,7
68189339933,-4,4,-8,-2,1,1,-1,-14
68189339933,-31,-8,-4,-2,-2,-3,1,-1
68189353677,40,7,9,-4,-7,-6,-7,5
68189353677,-19,-3,3,7,-2,-3,-1,3
68189362498,14,2,8,2,3,4,4,7
68189362498,-7,2,1,2,2,0,-3,7
68189376864,-10,-10,-17,-8,-3,-3,-1,-23
68189376864,-22,-1,19,7,0,1,-2,-8
68189383505,10,2,3,17,-2,-5,-10,-3
68189383505,3,-5,-17,-32,-6,-3,1,-3
68189390931,-15,1,-3,9,1,-2,-3,3
68189390931,19,-2,-4,-12,-2,-1,-1,2
68189399917,-8,-5,-15,8,4,4,6,-6
68189399917,6,-3,0,22,-2,-2,-3,-3
68189413423,3,-1,-4,-32,-4,1,-3,12
68189413423,-32,-5,-4,3,0,-3,-6,-18
68189422385,8,-3,-1,-18,-2,3,10,20
68189422385,12,11,9,-20,-7,-3,-7,-9
68189436801,-18,-10,5,42,-1,-6,-13,1
68189436801,24,-9,-17,-8,3,7,24,8
68189443526,3,1,-1,5,1,-1,-16,-6
68189443526,-14,-4,-3,-24,-4,-2,0,-1
68189451067,-5,4,6,7,-4,-1,-2,10
68189451067,6,1,-5,13,1,-3,-10,-4
68189466082,4,-5,-7,-11,6,6,6,5
68189466082,4,-4,-12,11,0,1,1,-3
68189473632,13,5,5,1,0,-3,-2,-7
68189473632,3,0,1,16,-1,0,-3,-1
68189482456,-5,1,0,-15,-3,-6,1,0
68189482456,-24,-8,5,10,2,1,-2,-9
68189496914,15,3,-8,-13,-1,2,5,5
68189496914,24,4,5,4,-4,-7,-16,3
68189503439,-20,5,3,-2,-3,1,20,-18
68189503439,13,-1,5,9,3,-1,-1,3
68189511161,-4,-3,-3,-3,0,-1,2,0
68189511161,-11,0,-6,-9,4,1,2,3
68189526119,0,1,16,-1,-5,-4,-10,-5
68189526119,-4,-1,2,10,-1,-3,-1,5
68189533695,-7,-5,-2,5,-3,-3,9,-7
68189533695,-10,2,-6,-69,-6,1,-13,4
68189542427,6,-3,-2,4,-5,-2,5,-4
68189542427,-2,-5,-10,4,-5,-3,0,1
68189556685,-7,-3,4,12,3,3,2,-8
68189556685,-7,4,2,-2,-1,0,3,-1
68189563657,21,2,-4,5,3,1,-5,9
68189563657,1,-2,1,-12,0,-1,-4,-5
68189570903,-13,3,8,4,4,-1,1,10
68189570903,7,-2,-13,-7,-8,-5,-2,-3
68189586046,1,-2,0,15,-2,-3,-2,4
68189586046,-27,-2,3,-8,1,1,-1,-5
68189593554,1,1,0,-6,-1,-3,-2,4
68189593554,14,-1,1,7,5,0,-3,-9
68189602423,-14,-2,-7,-14,-7,-5,-7,-7
68189602423,-1,5,4,37,0,-6,-16,-5
68189616721,17,2,-5,-23,2,9,31,27
68189616721,-18,-6,-4,-9,-4,-2,-4,-19
68189623675,7,-7,-7,-7,-1,0,-2,2
68189623675,0,-1,-2,1,0,-2,-5,-2
68189631129,-9,-3,11,29,3,-2,-9,-8
68189631129,-31,-2,9,-17,-2,2,-1,-22
68189645974,-2,-4,-9,0,2,0,2,1
68189645974,7,-4,2,-10,-4,5,9,2
68189653571,-4,0,-9,2,-3,-6,-12,-8
68189653571,10,1,2,-5,2,3,11,14
68189662478,-4,2,1,4,-4,-7,-14,1
68189662478,0,-1,-2,-3,0,0,2,-8
68189676781,-16,-6,-8,-10,-4,-2,-1,-8
68189676781,16,2,6,15,2,-3,-2,1
68189683442,-2,3,1,-1,-2,-1,-1,0
68189683442,8,-3,-4,-10,2,1,1,2
68189690925,-18,1,-6,-39,-12,-1,-3,-15
68189690925,7,-5,-8,26,2,-4,-3,1
68189705988,-1,-4,-4,-31,-3,2,-3,-3
68189705988,-7,1,0,5,5,4,4,0
68189713637,1,-3,-2,2,0,-3,-10,-8
68189713637,-11,-1,-2,3,-2,2,2,5
68189722503,-1,-3,-1,5,-2,-3,0,0
68189722503,18,2,4,-1,-4,-5,-6,1
68189735985,-4,-1,-2,-5,1,-1,-2,4
68189735985,3,-2,0,11,-3,-2,1,-3
68189744976,-5,2,0,3,9,0,1,3
68189744976,-1,0,2,-3,-3,-2,1,-1
68189759292,2,-1,-1,8,-2,-2,-4,0
68189759292,-5,0,2,-2,-9,-4,-2,4
68189765984,-1,0,-7,-1,0,0,-4,-2
68189765984,3,-2,-4,-1,-5,-2,0,1
68189782374,6,0,1,-1,-5,-1,-2,-1
68189782374,-5,-8,-10,-6,5,1,-1,1
68189784129,-2,2,8,1,-4,-1,1,3
68189784129,6,2,7,0,-9,-5,-1,1
68189796210,-7,-1,-5,-1,2,2,-1,5
68189796210,0,-1,0,-6,-9,-4,-1,-20
68189804939,-7,-1,-5,0,-3,-1,-2,-11
68189804939,3,1,2,3,6,1,1,9
68189819178,4,0,-3,-6,-3,0,-3,-7
68189819178,-1,0,2,1,5,0,0,6
68189826118,-1,0,1,2,0,-3,-2,-1
68189826118,2,1,0,1,0,2,0,-6
68189842504,-6,-1,-1,-1,4,3,1,0
68189842504,1,-2,-1,4,-1,-1,-1,5
68189843911,-2,-2,-1,2,2,4,2,1
68189843911,0,-2,-2,-4,-4,-4,-3,1
68189856149,3,0,-5,-1,1,0,0,3
68189856149,-2,0,4,0,2,1,-1,3
68189865054,1,-1,0,-2,-7,-5,-3,1
68189865054,1,-2,-7,-2,2,0,2,-4
68189879382,1,-2,3,1,1,-2,-1,-3
68189879382,-4,1,-1,1,0,0,0,2
68189886112,4,-2,-3,-2,-3,-4,-1,3
68189886112,-5,-3,-4,-1,0,-1,-1,-3
68189902235,0,-1,1,1,0,0,-4,-2
68189902235,-6,-2,-4,0,1,1,0,2
68189903856,2,0,-1,0,-3,-1,0,3
68189903856,-5,-1,-2,-2,-1,-4,-1,-4
68189916143,9,0,-2,-1,-1,2,0,3
68189916143,-3,0,1,1,0,-2,0,1
68189924981,0,-1,0,-2,1,-2,0,4
68189924981,-9,2,0,2,1,2,-1,-22
68189939149,0,1,-1,-2,-4,-3,-3,-1
68189939149,1,-1,-5,-4,-4,-1,1,3
68189946006,4,-1,2,0,0,-2,-1,-2
68189946006,-2,-3,1,0,2,0,-2,5
68189962415,-4,-1,-3,-2,-2,-4,-2,-1
68189962415,-4,-3,1,2,2,3,1,-2
68189963898,-3,0,-2,-2,-2,-1,-2,-2
68189963898,10,-1,-2,-2,-1,-2,0,7
68189976674,-14,-2,0,1,-1,-1,-1,-7
68189976674,6,1,-1,-3,-3,-2,1,4
68189983528,2,-2,0,-1,-2,0,-3,-3
68189983528,3,-2,0,2,6,6,2,5
68189999180,-18,-2,-3,-1,-3,-3,-2,-10
68189999180,-4,0,0,1,1,0,-1,-1
68190006241,-7,-1,-3,-2,-1,0,-1,-3
68190006241,11,-2,1,-1,-2,-5,-2,7
68190022473,2,-1,1,-1,1,1,2,0
68190022473,1,-2,-2,-2,-2,-2,-1,-2
68190023986,-3,0,0,2,2,0,0,0
68190023986,-3,-2,-5,-4,-4,-3,-3,2
68190036817,1,0,-3,-1,2,1,1,4
68190036817,4,0,0,-1,-4,-3,-2,-2
68190043586,-3,0,0,1,-2,-1,0,1
68190043586,-6,1,-1,1,2,2,1,-10
68190059137,10,-1,-1,1,-1,-3,1,4
68190059137,-10,-1,-2,0,0,0,-3,-6
68190066198,8,-3,-2,-2,-4,-5,-2,1
68190066198,-8,-1,0,1,0,2,-1,0
68190082320,5,-1,-1,-1,-3,-1,-3,-1
68190082320,2,-1,-2,-1,-1,-1,-2,3
68190083911,-2,0,-1,-1,0,-1,-2,-6
68190083911,-3,-1,-1,1,-1,0,-1,0
68190096197,3,-1,-1,-2,-2,-4,0,12
68190096197,-20,-4,-1,-2,-2,-4,-5,-29
68190104987,-1,0,-1,-1,-1,-1,1,-2
68190104987,1,-2,-3,-2,-1,-2,0,-2
68190119406,-4,-1,-1,0,-3,-2,-2,2
68190119406,11,-1,-1,-2,-1,-1,0,10
68190125968,-8,-2,0,2,2,4,0,-4
68190125968,2,-2,0,-3,-2,-2,0,3
68190142586,1,-1,-1,-4,-2,-3,-2,-7
68190142586,0,-2,1,2,1,3,2,6
68190143972,-2,-1,-1,-3,-2,-2,-2,-2
68190143972,-1,-1,-1,-1,-1,0,2,0
68190156139,3,0,-2,-1,-2,-3,-2,1
68190156139,-2,-1,-2,-1,-3,-2,0,1
68190165037,-1,-1,-1,-3,-2,-2,0,-1
68190165037,-7,-1,-2,1,0,2,-1,-5
68190179408,4,-3,1,1,-3,-1,1,5
68190179408,7,3,0,-1,-3,-2,-2,4
68190186171,-1,0,-2,0,-3,-3,-1,-1
68190186171,3,-2,-1,0,1,-1,0,7
68190202289,-10,-2,-2,-1,1,0,-2,-12
68190202289,5,-1,-1,-1,-2,-2,-3,2
68190203897,-1,-1,0,-2,-2,-1,0,-1
68190203897,1,1,-1,-2,-3,-3,-1,1
68190216189,2,-2,-3,-1,2,-1,0,8
68190216189,-4,-1,0,-1,0,1,1,-5
68190224995,1,-1,0,-3,-2,-1,-2,-2
68190224995,-3,-1,-2,-2,-1,-2,-4,-8
68190239256,6,-1,-3,-1,-2,-1,-3,4
68190239256,0,-1,-2,0,-2,-3,-2,-4
68190246099,-7,0,-1,-2,-2,-1,-2,5
68190246099,8,-2,-1,-1,-2,0,1,2
68190262489,-3,-1,0,-1,-2,-1,1,-4
68190262489,-8,0,-2,-3,-1,0,1,1
68190263909,3,-1,-2,1,-1,0,-2,-1
68190263909,0,-1,-2,-2,-4,-2,-4,-2
68190275980,0,-3,-1,1,0,1,0,-4
68190275980,-3,0,0,-1,-2,-2,-1,2
68190284972,0,-1,-1,0,-1,-1,1,-1
68190284972,6,2,-3,-3,-4,-2,-1,6
68190299271,-18,-1,-1,0,2,0,-2,-32
68190299271,1,-1,0,0,1,1,1,0
68190306092,3,0,-3,-1,-1,-3,-2,1
68190306092,-3,-2,0,0,-1,-2,-1,-3
68190322361,-15,0,0,-3,-3,-2,-2,3
68190322361,5,-2,-2,-2,-3,-2,-2,-4
68190323933,-2,-2,-1,-2,0,0,0,-1
68190323933,-1,-2,-2,0,0,0,-2,-6
68190336163,-1,0,-1,0,0,0,-1,2
68190336163,-3,0,-2,-3,0,-2,-1,3
68190344938,4,-1,-2,1,-2,-3,-1,2
68190344938,-4,-1,0,-3,-3,-2,-3,-4
68190359307,2,0,2,-1,-1,0,0,-1
68190359307,3,-3,-1,1,0,2,1,5
68190366013,-4,-2,-1,-1,-2,-1,-3,-16
68190366013,0,2,1,0,-2,-2,0,3
68190381909,2,-4,-1,0,0,1,2,0
68190381909,-3,-2,-1,-3,-1,-4,-3,-2
68190388543,-2,-2,-2,-1,3,1,1,4
68190388543,-1,-2,-2,-2,-2,-4,-1,4
68190404794,-5,0,0,1,-2,-3,-2,-13
68190404794,-2,-1,-1,-1,0,0,2,2
68190406370,2,-1,0,0,-2,-1,-2,1
68190406370,-4,-1,-2,-1,1,1,-1,1
68190419050,0,-1,-2,-1,2,1,0,6
68190419050,0,0,-2,0,-1,-3,-1,-2
