timestamp,emg1,emg2,emg3,emg4,emg5,emg6,emg7,emg8
67615271375,-2,1,0,0,-2,-3,-3,0
67615271375,1,1,-1,-1,-1,-2,3,0
67615272100,-2,-3,-3,1,-1,0,-6,-2
67615272100,0,0,0,2,1,2,0,1
67615273077,-2,-2,-2,-3,-1,0,0,0
67615273077,-1,-1,2,0,-2,-3,-2,-1
67615276543,-1,-2,0,-1,-2,1,3,-1
67615276543,0,1,0,0,5,1,-1,-1
67615283013,1,0,-2,-1,-2,-2,0,0
67615283013,0,2,-2,0,-1,-1,-5,-2
67615291660,-1,-4,-2,-2,-4,-5,-3,-1
67615291660,-1,-1,-1,-1,-2,-1,0,-1
67615299336,-2,1,0,-1,-2,0,-4,0
67615299336,-1,-2,-1,0,3,5,0,-1
67615312772,-1,1,0,-2,-2,0,-1,-1
67615312772,0,-1,-1,-3,-1,-1,-1,1
67615324439,0,-3,-3,-1,-2,-4,-1,-1
67615324439,-2,-2,-1,-3,-3,-1,-1,-3
67615328070,-1,0,-1,1,3,2,0,-1
67615328070,-2,-2,-3,-1,-3,-5,-3,-4
67615343113,2,-1,3,0,1,1,0,-1
67615343113,-2,0,-1,-1,-2,-3,-3,-1
67615389797,-2,-5,-1,-1,-3,-2,-2,-1
67615389797,0,1,-2,-1,1,3,1,2
67615390392,0,-2,0,0,1,0,-2,0
67615390392,-1,1,-1,0,1,-1,-1,0
67615391184,-1,3,-1,-3,-4,-2,-1,0
67615391184,-2,-3,-1,0,-2,-3,-1,-1
67615392099,0,-1,-4,-4,-1,-1,0,-1
67615392099,0,-1,1,0,-1,-1,-1,-1
67615402536,0,0,0,-1,-1,-3,-3,-1
67615402536,-2,0,0,-1,0,-1,0,1
67615410331,-3,1,0,0,-2,0,1,-1
67615410331,-2,-4,-3,0,0,0,-2,-2
67615419166,-1,2,-1,-2,-1,-1,1,-2
67615419166,0,1,1,-2,-6,-7,-4,-3
67615432835,1,-5,0,1,2,-1,0,0
67615432835,-1,0,-2,-3,-4,-1,0,0
67615441592,0,-1,-2,1,1,1,0,-1
67615441592,0,-4,-1,-1,0,0,-1,-1
67615447539,-1,1,0,-1,-3,-3,-2,-1
67615447539,-2,0,-1,-3,-1,1,1,-1
67615462854,1,1,0,-2,-2,-3,-1,-1
67615462854,-2,-3,-2,0,2,2,0,-2
67615470244,-1,-2,-1,-2,-2,-2,-2,-2
67615470244,0,0,-1,0,1,1,1,2
67615479185,-4,-1,-1,-3,-2,0,-1,0
67615479185,0,-5,-2,-1,0,1,-1,0
67615492791,-1,2,-2,0,-2,-2,-1,-2
67615492791,-2,0,-2,-3,-4,-5,-3,-3
67615501634,-1,-2,-2,0,0,-1,0,0
67615501634,0,-1,-1,-3,-2,-3,-1,-3
67615507795,-2,0,0,0,0,1,2,1
67615507795,-1,-1,-1,-1,-2,-1,-1,-2
67615522806,0,-4,-3,-1,1,1,0,0
67615522806,-1,3,1,0,-2,-2,0,-1
67615530170,1,0,-1,-2,-1,-1,-1,0
67615530170,-3,0,1,0,-3,-3,-4,-1
67615539034,-1,0,1,2,0,1,-1,-1
67615539034,-1,0,-2,-3,-1,0,-2,-1
67615552795,-3,-3,0,1,0,1,2,0
67615552795,1,-2,0,1,2,4,2,1
67615561626,-2,-2,0,0,-3,-3,-3,0
67615561626,-1,-1,0,1,-2,-2,-3,-3
67615567857,-3,-3,-3,-2,-2,-4,-4,-1
67615567857,-2,-1,-2,-3,-2,-5,-4,-3
67615582827,-1,-2,-1,0,3,5,3,0
67615582827,-1,-1,-2,0,0,-1,-2,0
67615590350,-1,0,-2,-1,1,3,0,-1
67615590350,0,1,0,1,0,0,-1,0
67615599159,-1,-2,-3,-2,-3,-3,-3,-4
67615599159,0,-1,3,-2,-4,-4,-2,-2
67615612831,0,-2,-1,-2,0,-1,-1,-1
67615612831,0,-4,-1,-1,2,2,2,1
67615621582,0,-1,1,2,6,4,-1,-1
67615621582,-2,-1,-2,-1,-1,-1,-2,-1
67615627860,-2,0,-1,-3,-4,-2,-2,-1
67615627860,0,-2,0,-2,-3,-4,-4,-3
67615642750,-1,-2,1,-2,-3,-4,-2,-2
67615642750,-1,-1,-1,-1,1,-1,-1,1
67615650277,1,0,3,1,0,-2,-3,-1
67615650277,0,-1,-9,-5,-1,-1,1,-1
67615659119,0,-1,-2,0,-3,-2,-1,0
67615659119,-2,2,-1,-1,0,0,-1,-2
67615672635,-1,-1,-3,-4,-3,-4,-1,-2
67615672635,-2,-1,1,-1,0,1,0,-1
67615681583,0,2,-1,0,2,0,2,-1
67615681583,-1,-3,-2,0,0,0,1,0
67615687814,0,2,2,2,0,-1,0,0
67615687814,0,-1,-1,-4,-3,1,-1,-2
67615702571,-4,-5,0,-4,-2,-4,-2,-2
67615702571,1,0,-1,2,0,-1,-1,-1
67615710193,-2,-3,8,3,2,-1,-2,-2
67615710193,-2,-1,4,4,-2,-2,-1,-1
67615719038,-1,-1,-5,-5,-3,0,-1,-1
67615719038,0,-1,1,0,1,0,-1,-1
67615732622,-1,-2,-6,-5,2,0,-1,-1
67615732622,0,0,0,6,1,-2,1,-1
67615741778,0,1,-1,-9,-3,-2,-3,-4
67615741778,0,-1,8,6,-2,-1,0,-1
67615747763,0,2,-6,-2,-7,-9,-6,-3
67615747763,-1,-4,-9,-6,4,4,-1,0
67615762708,-1,2,0,3,3,0,2,0
67615762708,0,3,-4,-2,0,-1,-1,-2
67615770282,2,-2,-3,-3,-2,1,-1,0
67615770282,-1,0,2,0,-4,-4,-2,-1
67615779116,-1,-2,-1,-1,-3,-2,-1,1
67615779116,-3,-1,-2,-5,-3,-2,-2,0
67615792770,1,-2,3,5,5,8,4,0
67615792770,0,-3,-3,-2,-2,-2,-2,-2
67615801640,-1,1,2,5,2,2,1,-1
67615801640,0,-2,-4,-2,-4,-2,0,0
67615807657,-3,-1,-4,-4,-2,-2,-2,-3
67615807657,-1,0,1,-2,0,-1,-2,-2
67615822738,-1,-2,-3,-3,-1,-2,-1,0
67615822738,-3,-2,-1,0,2,0,-1,0
67615830318,-3,-2,-3,-1,-1,0,0,-2
67615830318,0,2,2,1,0,0,-1,-1
67615839133,0,-2,0,1,-5,-3,-3,-1
67615839133,-1,-3,-4,-2,0,0,-1,-2
67615852787,0,0,-2,-5,-2,-1,-1,-1
67615852787,-1,-1,0,0,-3,-6,-5,-1
67615861683,-1,1,0,1,4,3,2,2
67615861683,0,0,-4,0,-1,-1,0,0
67615867589,-3,-3,2,-1,-2,-2,-1,0
67615867589,-4,-3,-10,-6,-2,-3,-1,-1
67615882834,0,0,0,-1,-3,-2,-2,1
67615882834,-1,-1,-1,-1,2,2,0,-1
67615890309,-3,-3,1,2,-1,-1,-2,-1
67615890309,-1,0,2,0,0,-1,0,-1
67615899122,0,0,0,0,-1,0,-1,-2
67615899122,-1,-1,-2,-3,-2,-3,-2,-2
67615912851,0,-2,-3,-1,-4,-3,-2,-2
67615912851,-1,-1,1,0,-1,-1,-4,-2
67615921624,-2,-2,-3,0,3,0,0,0
67615921624,2,5,1,2,0,-2,-1,-1
67615927725,-1,-2,-3,1,3,-1,-2,-1
67615927725,-1,0,3,3,0,3,1,0
67615942554,-1,-2,-3,-3,-4,-4,-2,-4
67615942554,-3,-2,-3,-5,-2,0,-1,-1
67615950268,-1,3,-1,-1,-3,-3,-3,-2
67615950268,1,1,1,0,-2,-1,-1,0
67615959163,-2,-4,-2,-1,-1,0,0,-1
67615959163,1,-1,2,2,1,0,0,-1
67615972794,-1,-1,-4,-2,-1,-3,-1,0
67615972794,1,1,3,3,-1,1,-1,-1
67615981606,0,1,-6,-6,-3,-2,-3,-1
67615981606,-1,-1,12,13,0,1,0,-1
67615996030,-2,-2,-2,-7,-2,-2,-1,-4
67615996030,-3,-4,9,4,-3,-3,0,0
67616002811,-1,1,7,6,2,-1,-2,-1
67616002811,-1,0,4,4,-1,-3,0,-2
67616010343,2,-3,-2,-1,-1,1,1,1
67616010343,-1,2,12,9,2,-1,0,0
67616019156,-1,-4,-23,-7,-3,-1,-2,0
67616019156,2,-3,-7,-5,-4,-3,-2,-2
67616032796,-9,-1,-1,4,2,3,1,1
67616032796,-2,-2,-10,-11,-2,-4,-5,-2
67616041660,3,4,12,14,3,1,1,-1
67616041660,-2,-1,0,-11,-3,-2,-2,1
67616055849,3,-1,-9,-7,-2,-3,0,0
67616055849,6,0,9,14,0,-2,-3,-2
67616062800,-8,-6,-23,-10,-4,-3,-2,-3
67616062800,-3,-5,-4,-5,0,1,0,-4
67616070348,-2,2,2,-6,-2,-1,-2,1
67616070348,9,0,4,8,3,0,0,3
67616079099,2,-2,2,-19,-5,-3,-2,-1
67616079099,2,0,-18,-9,-3,-1,-5,-6
67616093354,-2,-1,13,8,1,1,2,-1
67616093354,-1,0,0,-8,-2,-1,2,-3
67616100157,-3,1,6,4,-2,-4,-2,0
67616100157,1,0,1,0,4,3,1,0
67616115983,1,-1,-10,-3,-1,-3,-3,-2
67616115983,-4,-1,-8,-2,-2,-2,-1,-2
67616122617,4,-6,-9,-1,0,-1,-2,-2
67616122617,-9,2,26,6,-4,-3,-1,-2
67616130289,3,-1,-12,1,0,-1,-2,0
67616130289,-6,-6,2,3,-2,-1,-2,-1
67616139101,-3,-3,-21,-25,-2,-1,-2,-2
67616139101,-1,-3,-5,7,0,-1,-1,-2
67616153348,-1,2,11,3,-2,1,-1,0
67616153348,2,5,-12,-9,-1,1,-1,-1
67616160306,-1,-1,5,5,-1,-2,-1,-1
67616160306,-1,-8,-12,-9,-3,0,-2,-1
67616175868,1,-1,19,12,5,1,1,-2
67616175868,-3,-1,-20,-8,-3,-2,0,-1
67616182636,-1,-1,16,5,-5,-2,-3,-3
67616182636,-2,3,-13,-1,0,-1,-1,1
67616190145,-2,-3,-8,-4,-3,0,0,-2
67616190145,-3,-2,-8,-6,-2,-1,-1,-2
67616199140,0,-5,18,13,4,-2,1,-1
67616199140,1,-2,-10,1,-2,-2,1,-1
67616212725,-1,-1,7,-6,-4,-2,-2,-1
67616212725,-4,-6,-13,-6,1,0,-1,-2
67616221632,3,10,19,9,-3,-1,-3,0
67616221632,2,6,-14,4,6,2,1,0
67616236024,1,4,1,2,-1,-3,-2,-1
67616236024,-5,-3,23,0,-2,-3,-2,-3
67616242794,-2,2,6,4,2,5,3,1
67616242794,1,-3,0,-4,-3,-4,-4,-1
67616250313,-2,-8,1,0,1,-2,0,-1
67616250313,0,-3,-16,-2,1,3,1,1
67616259159,0,1,0,-2,-2,-1,-2,0
67616259159,-2,-2,9,-2,-5,-1,-2,0
67616273357,-2,-2,0,-2,-1,-1,0,-1
67616273357,-2,-3,-11,-8,-3,-3,-2,-1
67616280298,-1,-3,-10,-6,1,-1,-2,-1
67616280298,0,6,13,3,-4,-2,-2,-1
67616296091,-4,-6,-1,2,0,-2,-2,-2
67616296091,-1,6,7,4,1,0,-1,-2
67616302689,0,-4,-22,-14,-3,-2,-2,-3
67616302689,-1,1,1,-1,3,1,-2,-3
67616310328,0,2,-2,-11,-1,1,-2,0
67616310328,-3,-2,9,14,-2,-2,0,-3
67616325336,1,1,-10,-5,-3,-1,0,-2
67616325336,0,-7,6,-4,-3,-2,-1,-1
67616333488,0,2,-14,-3,-2,-4,-2,1
67616333488,1,-1,3,-1,3,1,-1,2
67616340315,-1,3,3,2,0,1,-1,-1
67616340315,-3,-13,-16,-1,-3,-3,-2,-2
67616355837,-1,1,-16,-6,-6,-3,-2,-2
67616355837,1,2,0,-7,2,3,4,-2
67616362743,-1,-1,24,15,4,2,2,2
67616362743,-1,8,-16,-9,1,2,1,3
67616378331,0,-18,-16,-2,-7,-3,-4,-3
67616378331,1,6,6,3,1,-3,-4,-1
67616385314,-2,-5,-26,-4,0,-1,-1,-1
67616385314,-2,0,26,3,-2,-2,1,-1
67616392842,3,11,11,5,1,2,-1,1
67616392842,-2,-7,6,-2,-6,-3,-2,-2
67616401680,-4,-10,-7,-9,-1,-2,-2,-2
67616401680,-2,3,-2,-3,-3,-2,0,-2
67616415807,-4,-4,-5,2,-8,-1,-2,-2
67616415807,1,4,15,-10,2,0,-1,0
67616422847,0,-4,-2,2,-3,0,-2,-1
67616422847,-3,-6,-11,-12,-13,-5,-4,-3
67616438292,-1,1,3,-14,-2,-1,0,0
67616438292,1,-3,-21,-3,-2,-5,-3,-1
67616445283,-3,-1,-4,2,-6,0,0,-2
67616445283,4,8,-13,1,8,5,3,1
67616452664,-4,-15,1,-5,-9,-1,0,-2
67616452664,-2,9,17,0,-5,-4,-3,-2
67616461677,-3,6,4,-1,2,-5,-3,-1
67616461677,-1,-3,11,8,-6,-4,-2,-1
67616475890,0,2,-2,6,7,2,3,1
67616475890,-1,-3,-2,3,1,2,2,-1
67616482689,-2,-2,24,-2,-3,-1,-2,-2
67616482689,-1,-6,-1,3,5,0,0,-1
67616498291,3,8,19,-2,3,1,-1,0
67616498291,-2,-9,-41,4,2,-1,-2,-3
67616505257,1,2,6,-2,-6,-1,0,1
67616505257,0,-3,-1,-4,-2,-1,0,0
67616521575,-2,-13,-11,5,6,4,3,0
67616521575,-3,-6,-7,-5,-8,0,0,-1
67616523084,1,1,0,0,-1,-1,-1,-2
67616523084,-1,-3,8,-3,-2,-4,-4,-2
67616535983,0,1,-14,-3,-9,-3,-4,-3
67616535983,1,1,19,-1,8,3,1,-1
67616542765,-1,-9,-25,-3,-3,-1,-1,0
67616542765,-1,16,46,-3,-13,-7,-5,-3
67616558546,2,11,-12,4,6,2,1,3
67616558546,-3,-5,4,-1,-5,-3,-2,-2
67616565369,-1,3,1,-2,2,1,0,-1
67616565369,-1,1,-5,0,-5,0,1,1
67616581719,-1,-8,-1,-6,-6,-1,-2,-1
67616581719,-2,3,15,-1,-1,-2,-1,-1
67616583137,1,-1,-21,-1,-3,-1,0,-1
67616583137,1,-1,-2,4,5,1,0,-1
67616595089,-4,-5,-22,-5,-4,-9,-8,-4
67616595089,-1,-2,-6,7,14,15,9,1
67616604112,2,-15,-15,6,5,1,1,-1
67616604112,0,15,20,-3,2,-1,-2,2
67616618362,-11,-27,-25,-9,-13,-10,-5,-10
67616618362,3,9,1,-1,-7,-6,-6,2
67616625299,-8,-21,11,3,0,-4,-5,-6
67616625299,2,0,2,9,25,8,3,1
67616641618,3,13,-1,6,4,2,-1,0
67616641618,-2,10,7,-9,-10,-5,-2,0
67616643045,-1,-1,-14,-4,-3,0,1,0
67616643045,2,-9,-10,-1,-10,-5,-2,0
67616655143,0,12,21,3,4,2,0,-3
67616655143,2,3,-14,-7,-4,-1,-1,3
67616664087,-2,16,22,4,2,0,-3,2
67616664087,2,-10,-13,-6,-5,0,1,-2
67616678519,2,1,-6,-1,3,2,2,3
67616678519,0,-5,-8,2,1,-2,-1,-3
67616685290,-3,-2,-9,-5,-7,-4,-1,-1
67616685290,-4,-11,-10,-1,0,-4,-6,-7
67616701524,-1,4,8,4,5,6,5,2
67616701524,2,-7,9,-1,-4,-5,-2,-2
67616703077,3,18,24,2,0,4,3,0
67616703077,-3,-5,-12,4,5,-3,-1,-1
67616715248,-2,10,2,0,-9,-4,-4,-3
67616715248,-2,3,15,5,15,5,0,1
67616724124,-1,-14,-46,-7,-7,-3,-1,0
67616724124,-4,-8,1,7,1,0,0,-1
67616738498,0,0,3,-6,-6,-3,-2,1
67616738498,-3,-18,0,14,2,-2,0,-2
67616745110,-1,10,34,7,0,-1,-3,-3
67616745110,-1,-4,-30,-11,-2,-1,0,-1
67616761657,1,-2,9,-1,3,1,0,0
67616761657,-1,3,6,1,0,2,0,-1
67616763046,0,0,-14,-8,-2,-2,-3,-1
67616763046,-4,-11,3,0,-3,-1,-1,-1
67616775197,0,3,8,-4,-1,-2,-1,-1
67616775197,-2,-2,0,4,0,-3,-2,-2
67616784084,-1,4,20,2,2,2,1,-3
67616784084,0,5,-3,1,-2,1,1,2
67616798399,-2,-7,5,-6,-2,-1,0,-1
67616798399,-1,0,-3,-5,-6,-1,-1,0
67616805227,-1,-17,-11,-3,0,-2,-1,-1
67616805227,-3,1,-8,-7,-6,-3,0,-1
67616821426,0,-1,11,0,4,-1,-3,-1
67616821426,0,2,-25,2,3,1,1,-1
67616823097,2,7,14,-6,-8,-2,-1,-1
67616823097,-1,1,4,5,5,0,0,-1
67616835972,0,3,-12,-1,-1,3,3,1
67616835972,-6,-19,-12,-15,-9,-2,-3,-3
67616842637,1,1,3,6,5,2,0,0
67616842637,2,6,2,-8,-8,-3,-2,0
67616858522,-2,-3,5,0,-1,1,0,-2
67616858522,0,4,-1,2,3,-2,-1,-2
67616865319,0,4,-2,-2,0,-2,1,0
67616865319,0,6,6,1,-1,3,-1,-1
67616881734,-2,-21,0,2,2,0,-2,-1
67616881734,0,5,-10,-11,-8,-2,-2,-2
67616883104,-2,-3,2,8,3,-3,-3,-3
67616883104,0,4,-4,-4,-1,1,1,0
67616895833,-2,-6,-2,4,1,-2,0,1
67616895833,-1,-2,2,-5,-7,-2,-1,-1
67616902748,0,2,-4,0,-1,-1,-1,-1
67616902748,-1,-2,12,-1,-3,-2,-2,1
67616918428,-1,5,-3,-1,0,0,2,-1
67616918428,0,-3,1,-2,-2,-1,0,0
67616925086,-1,5,4,-3,-1,-1,-2,-1
67616925086,-3,-4,-25,-3,-1,-2,-2,-2
67616941408,-1,3,-6,-3,-4,-3,-2,-1
67616941408,-1,-1,-7,-2,-6,-3,-1,-2
67616943017,0,-12,2,1,0,5,3,0
67616943017,-1,9,11,-9,-3,-3,-3,-3
67616955226,1,8,-31,-2,-3,-3,-2,0
67616955226,-1,-5,9,3,-3,-3,-3,-1
67616964124,1,7,1,-6,-1,-2,-1,-1
67616964124,-2,-4,-12,1,0,2,1,-1
67616978372,-1,0,-5,-3,-3,0,-2,-1
67616978372,-1,0,1,2,0,1,-1,1
67616985127,-4,-1,-5,3,-3,-2,-4,-2
67616985127,-1,-3,-7,-1,-3,-2,-2,1
67617001425,0,-2,18,6,1,1,0,0
67617001425,1,-4,-11,-5,3,1,0,0
67617003060,0,0,2,0,3,-2,0,-1
67617003060,-1,-4,0,-2,-2,-2,-1,-2
67617015302,-2,0,3,1,-2,-1,-2,-3
67617015302,-3,0,4,-5,-1,-3,-2,-1
67617024118,1,5,-6,2,2,-2,-2,-1
67617024118,-1,-13,5,8,-1,0,-1,-1
67617038470,1,-2,-2,-10,2,0,0,-2
67617038470,-1,1,-3,1,2,2,-1,0
67617045307,-1,1,0,-3,-2,0,-1,-2
67617045307,-2,-4,-5,2,0,-2,0,-3
67617061461,-1,-1,4,1,-1,-2,-2,-2
67617061461,-1,4,2,-4,-5,-5,-2,-2
67617062993,0,-7,-3,-6,-3,0,1,0
67617062993,-2,0,6,1,2,-3,-2,-3
67617075140,-1,-2,6,-1,-5,-3,-4,0
67617075140,0,4,-18,-7,2,0,0,-2
67617084054,-2,-3,28,0,-6,-2,-3,-2
67617084054,-2,-4,-5,-1,-2,3,0,0
67617098542,1,9,14,7,0,0,0,-1
67617098542,0,-5,-2,2,-3,-3,-2,-3
67617105147,0,2,-7,-3,-1,-3,0,-1
67617105147,-3,-2,13,3,0,1,0,-2
67617121622,-3,1,-3,-5,-2,0,0,0
67617121622,-2,-5,-7,1,1,1,0,0
67617123098,-1,-2,-12,-3,-1,0,-2,-2
67617123098,2,3,-11,-4,-5,-2,-3,0
67617135322,-1,-2,-2,-2,2,0,0,-1
67617135322,-1,0,7,2,2,-1,-1,-2
67617144109,-2,-2,-8,-4,-1,0,0,-1
67617144109,-2,-9,-2,-2,-2,-3,-1,1
67617158355,-1,1,5,3,2,-1,-3,-1
67617158355,-1,-3,-1,-5,-4,-2,-1,-1
67617165100,-2,-3,-11,-3,-1,0,-1,-1
67617165100,-1,7,10,9,6,0,0,-2
67617181637,-1,-8,-6,0,1,0,2,0
67617181637,-1,-1,4,3,-3,0,-1,-1
67617183078,-3,-1,-4,1,-2,-1,-2,0
67617183078,0,1,6,-7,-2,-2,-2,-1
67617195147,0,1,-15,1,3,0,-1,-1
67617195147,-2,-11,-6,-1,-3,-2,0,0
67617204047,0,3,17,-1,-1,2,0,-2
67617204047,0,-4,-15,-3,1,0,-1,-1
67617218438,0,1,-2,0,-2,-3,-3,-3
67617218438,0,1,-9,-1,-2,0,0,-1
67617225359,-2,0,11,1,0,-4,-1,-1
67617225359,-2,-4,-5,-6,-4,0,-1,-1
67617240192,-1,-3,-5,-6,-4,-1,0,0
67617240192,0,4,12,6,0,-1,-2,-1
67617247846,-1,3,-7,-5,-1,0,-1,1
67617247846,-3,0,-6,-4,-2,-1,-2,-3
67617263435,-2,-2,-1,0,-3,-3,-3,-1
67617263435,0,0,13,2,-1,-1,-1,-2
67617264098,1,-2,-11,-2,4,3,1,0
67617264098,0,-1,-10,0,0,0,0,-1
67617279212,-1,-2,1,-2,-3,-1,-2,-1
67617279212,-1,1,2,1,0,-1,-1,0
67617285263,-2,-3,0,2,2,0,-2,-2
67617285263,0,1,14,-2,-2,-4,-2,-1
67617300264,-2,-6,-18,-2,1,-1,-1,-1
67617300264,-1,0,-3,-2,0,0,-1,1
67617307724,0,-1,-3,1,1,0,0,-1
67617307724,1,0,1,-2,-5,0,1,2
67617323270,1,4,12,9,-1,-1,0,-1
67617323270,-2,-5,-13,-4,-2,-1,-3,-2
67617324040,0,2,-2,-2,-3,-2,-3,-3
67617324040,-2,3,-5,1,-4,-4,-2,-2
67617347307,-4,-10,-21,-10,-1,1,0,-1
67617347307,-1,2,1,0,1,-1,0,-3
67617349520,-2,-2,0,0,-2,-3,-2,0
67617349520,-3,1,-7,-3,1,0,0,-2
67617362165,2,1,8,5,5,0,-2,1
67617362165,-1,2,8,-2,-5,-4,-1,-2
67617367732,-2,-6,-15,-1,-2,0,1,-1
67617367732,1,2,-3,0,-2,-1,-2,1
67617383261,-1,-2,-7,-11,-2,2,2,0
67617383261,0,8,16,12,4,-1,-4,0
67617383972,-2,-5,-1,-3,-2,-4,0,0
67617383972,0,-2,-4,1,-2,-1,-1,0
67617399116,-2,3,4,-5,-4,-3,-1,-1
67617399116,0,-4,-2,-1,1,0,1,-1
67617405294,-1,-1,1,-2,-3,0,1,-2
67617405294,-1,-2,-5,0,4,-1,-1,0
67617420183,0,3,2,-3,-4,-1,-1,1
67617420183,-1,-4,-6,-4,-4,-3,0,-2
67617427762,0,-1,-4,3,3,0,-1,-1
67617427762,-1,-6,-3,-15,-6,-1,-2,-1
67617443436,0,0,-2,21,7,1,-1,0
67617443436,-4,-5,-3,-9,-3,0,-3,-1
67617444164,-1,-4,4,-2,-5,-1,-2,-2
67617444164,1,4,9,3,-1,-1,-2,-2
67617459131,-1,-4,0,-6,-6,-4,-3,-2
67617459131,0,1,-6,-3,-1,-1,-2,-2
67617465141,-3,0,1,2,-3,-2,-1,-1
67617465141,-4,-4,1,-4,0,-1,-1,-1
67617480093,-2,-3,5,0,-6,-3,-4,-4
67617480093,-1,-4,-12,6,5,2,1,0
67617487599,0,4,27,2,-2,-1,-3,0
67617487599,-4,-9,-20,3,-1,-1,1,0
67617503299,-3,0,-7,-5,-2,0,0,-1
67617503299,-3,-1,3,-1,1,0,0,-2
67617504176,0,0,-5,-1,-2,1,0,-1
67617504176,-1,1,-3,-1,-1,-5,-3,-1
67617519101,0,-2,5,-3,-2,-1,-1,-1
67617519101,-2,-2,-7,-3,-3,-1,0,1
67617525222,0,4,3,3,-1,-3,-4,-2
67617525222,0,2,11,3,1,1,1,-1
67617540235,-3,-4,-3,-4,-3,-5,-4,-3
67617540235,-1,-1,0,-2,-2,-1,0,-1
67617547765,-2,0,-3,-2,-1,-1,2,0
67617547765,-1,-3,-7,-6,-4,1,1,0
67617563233,0,-6,8,17,7,1,1,-1
67617563233,0,3,-12,0,0,-3,-3,0
67617564022,-1,-3,5,-2,-1,-1,-2,0
67617564022,-1,-1,-14,-2,2,4,0,0
67617579118,-3,2,17,-7,-4,-2,-2,-2
67617579118,-3,-6,-15,-5,-5,-2,-2,-2
67617585284,0,-2,-3,2,-1,1,0,1
67617585284,0,2,-1,-4,-1,-3,-3,-3
67617600246,0,-2,0,-2,-3,-2,-2,0
67617600246,1,1,12,-3,1,-1,0,-2
67617607719,0,0,-5,2,0,-2,-2,0
67617607719,-3,-10,11,-4,-4,-1,-3,-2
67617623204,-2,-1,-12,0,1,2,1,1
67617623204,0,10,16,-2,-3,-2,-1,0
67617624229,-3,-9,2,-1,-2,-2,-1,-3
67617624229,1,1,-10,0,0,-2,-3,-2
67617639289,0,4,5,-2,1,-4,-2,-2
67617639289,-2,-3,-3,1,0,1,-1,0
67617645172,0,0,-1,-3,-1,-2,-2,-2
67617645172,0,2,8,7,2,-2,0,0
67617660209,-2,-6,-3,-8,-1,0,1,-1
67617660209,0,0,-3,5,-1,-2,0,-1
67617667714,1,-1,-7,-7,-3,-3,-2,-2
67617667714,-1,-1,12,0,-4,-2,0,-1
67617683265,-1,2,3,1,-1,1,0,0
67617683265,-1,-6,-9,-3,1,0,-2,1
67617684214,-1,6,1,-2,0,-1,-2,1
67617684214,-3,0,4,1,0,-3,-1,-2
67617699123,1,7,-1,-5,-5,0,2,-1
67617699123,-4,-10,1,-2,-3,-2,-2,-3
67617705204,0,0,-1,-1,4,3,0,-2
67617705204,-1,2,-20,-3,-1,-1,-2,-1
67617720159,-2,3,6,0,-1,-1,-2,0
67617720159,1,0,3,-3,-3,-4,-2,-1
67617727699,0,-3,-4,-3,-3,-2,-1,1
67617727699,0,2,1,1,4,3,2,1
67617744752,-2,-4,-16,-4,-2,-3,-4,-2
67617744752,-1,-1,6,2,-1,0,0,0
67617745593,-1,2,5,-3,-2,0,0,0
67617745593,0,-3,-17,9,1,0,-3,-2
67617759209,-2,-1,4,-4,1,0,0,-1
67617759209,1,2,6,3,1,-2,-2,-2
67617765116,-2,-2,-1,-2,-1,-2,-1,-2
67617765116,-1,0,10,-1,-4,-2,0,0
67617780089,-2,-2,-6,0,-1,-1,-2,-1
67617780089,-1,0,-3,-2,-3,-2,1,0
67617787721,-2,3,6,1,-1,-1,-2,0
67617787721,0,4,-15,-3,2,1,2,-2
67617803406,-2,-16,1,1,-1,-2,-4,-3
67617803406,-1,0,7,-4,-5,-1,-1,-1
67617804127,-1,-1,-4,1,2,-1,-3,-1
67617804127,0,2,8,-2,-2,-1,0,0
67617819126,1,3,4,-2,-5,-2,-1,-2
67617819126,-1,-1,-16,-3,1,1,0,-1
67617825222,0,-4,-16,-2,-2,-1,-1,-1
67617825222,-2,1,17,0,-2,-2,-1,0
67617840195,-1,1,-6,3,2,0,2,0
67617840195,-2,-5,0,0,-4,-2,-1,-2
67617847572,-2,-1,1,-5,-3,-5,-4,-3
67617847572,-1,-3,-9,-12,-1,0,-1,-1
67617863347,-1,0,-5,1,-1,1,2,-2
67617863347,0,3,0,2,0,0,-1,-3
67617864031,-1,-6,-6,3,0,-1,0,0
67617864031,-1,-2,7,1,-4,-3,-3,0
67617879163,3,4,6,1,1,2,0,1
67617879163,-1,-3,-12,1,1,-2,-2,2
67617885339,0,-3,2,2,2,0,1,-1
67617885339,-4,-9,-6,-2,-2,-4,-4,-4
67617900237,-1,1,1,-6,-5,-1,-1,-1
67617900237,0,2,0,8,2,4,2,-1
67617907720,-2,-8,2,-2,-1,-1,-1,0
67617907720,-2,-3,-10,-3,-3,0,-1,0
67617923412,0,2,-4,3,2,-2,-2,-3
67617923412,-1,2,3,-3,-3,-4,-1,-2
67617924043,-1,-2,-10,-2,1,1,-2,-1
67617924043,3,1,9,-3,-1,-1,0,0
67617939242,-1,-5,-9,-6,-6,-2,-2,-2
67617939242,-1,0,0,3,3,1,-1,-1
67617945327,-1,-1,4,1,-2,-1,-1,-1
67617945327,-1,4,7,0,-2,-3,0,-2
67617960081,-1,0,16,-1,-2,0,-1,-1
67617960081,0,-3,-17,-6,-3,-2,-3,-1
67617967604,-1,-2,-10,-7,-5,-1,-3,-2
67617967604,-1,1,2,15,8,3,1,1
67617983408,0,-1,-7,-3,1,1,1,0
67617983408,-1,-1,1,-3,-1,0,0,0
67617984115,0,-2,4,-3,-8,-2,-2,-1
67617984115,0,-3,-16,0,3,1,0,0
67617999231,0,3,8,7,1,-3,-1,-1
67617999231,-2,-4,-15,-12,-2,-1,-1,0
67618005040,-1,4,1,4,8,3,2,-1
67618005040,-2,-3,-6,-3,-5,-1,-2,-2
67618020094,-3,-3,-1,-2,-1,-2,-4,-1
67618020094,-1,1,2,-3,-2,-1,-2,-3
67618027774,1,3,1,-1,-1,-1,0,-1
67618027774,-1,-2,3,-8,-4,-1,0,0
67618043253,-2,0,-3,12,7,1,0,0
67618043253,-2,-6,1,-3,-6,-4,-2,-2
67618044009,1,1,-4,2,0,1,-1,-1
67618044009,0,-2,7,-2,-2,0,-2,-1
67618059041,-1,-1,-3,-8,-6,-3,-3,-1
67618059041,-3,-7,1,4,4,1,0,0
67618065177,-1,1,6,0,-2,-2,0,-1
67618065177,-2,-1,-6,-3,-2,-1,-1,-2
67618080146,-2,-6,-10,-4,-6,-5,-3,-2
67618080146,1,3,9,1,3,2,1,2
67618087795,-4,0,1,-2,1,1,0,1
67618087795,-3,-4,0,6,-3,-1,0,-1
67618103251,-2,1,3,-3,1,-1,0,0
67618103251,0,1,3,-4,-5,-3,-3,-2
67618104006,-2,-2,-8,1,-1,-2,-1,-1
67618104006,-2,2,2,-3,-1,-3,-3,-1
67618117632,-1,0,-5,1,2,1,1,1
67618117632,0,1,11,-2,-6,-4,-3,-3
67618125350,-1,0,-8,-3,1,-2,0,-2
67618125350,0,2,0,0,-2,1,-1,-1
67618140235,-1,-1,-1,-3,-3,-3,-2,-1
67618140235,-2,-6,4,-4,-3,-3,-4,-1
67618147559,-2,-6,-13,2,-1,3,2,0
67618147559,-1,2,7,-3,0,-3,-2,-3
67618162704,-2,2,-3,-1,0,2,0,-1
67618162704,1,1,-3,2,-1,0,-2,1
67618170933,-1,-4,6,-2,-5,-4,-4,-2
67618170933,-1,-1,-5,0,1,0,1,-1
67618177593,-1,-2,1,-1,-3,-1,0,-1
67618177593,0,2,-1,0,0,-1,1,-1
67618185198,-1,-11,5,0,-3,-2,-2,-1
67618185198,0,-2,7,-5,-4,-2,-1,0
67618200379,0,0,5,1,-5,-1,-1,-3
67618200379,-1,3,-18,-5,0,0,-1,-2
67618207832,-2,-5,6,-3,-3,-3,-1,-2
67618207832,0,-3,6,5,5,-1,-1,-1
67618222778,-2,-6,-12,-2,0,0,0,-1
67618222778,0,0,7,0,-2,-1,0,-1
67618230915,-1,2,-1,-3,-1,-1,-1,-2
67618230915,-2,2,0,-1,-3,-2,-2,0
67618237580,0,-1,-4,3,4,2,0,1
67618237580,-1,-4,2,-4,-1,-2,-1,-2
67618245136,-1,6,5,-2,-3,0,-2,-1
67618245136,-1,-6,-8,5,2,-1,-3,-2
67618260272,-1,3,-7,0,-4,-2,-1,-3
67618260272,-1,-7,-5,-2,1,-1,0,-1
67618267813,0,0,-1,-3,-3,-2,0,-1
67618267813,1,10,15,0,2,-1,-1,0
67618282780,0,-6,13,1,-5,-1,-1,-1
67618282780,0,-2,-10,-1,-1,2,0,-2
67618290981,-3,4,-4,0,1,0,-2,0
67618290981,0,0,6,-3,-4,-3,-2,-1
67618297667,-1,-3,0,2,2,-3,-4,-2
67618297667,0,1,-6,-4,-1,0,2,-1
67618305328,0,0,-2,-7,-5,-3,-2,-2
67618305328,-1,-3,-8,3,1,2,2,-2
67618320160,-1,-1,5,-8,-2,-2,-2,-1
67618320160,-2,-1,-8,-2,-3,0,0,1
67618327795,-1,-4,-4,4,-2,-1,0,1
67618327795,-1,-4,-8,-4,-3,0,0,0
67618342669,0,0,-2,-5,-4,-3,-3,-3
67618342669,-3,-1,0,5,4,1,1,-1
67618350772,-1,4,1,0,-2,-2,-3,-2
67618350772,-1,-4,-15,-8,-1,-2,-3,-2
67618365843,0,-1,-5,1,0,1,-2,-1
67618365843,0,0,6,2,-1,1,0,-3
67618366571,2,2,-1,-1,1,-1,-1,-2
67618366571,-2,-5,14,-2,-5,-2,1,0
67618380336,0,4,-6,9,6,-2,0,0
67618380336,-1,2,8,2,-2,-2,-3,0
67618387804,0,0,-5,-2,4,0,-1,-3
67618387804,0,-4,0,-5,-4,-1,-2,-1
67618402783,-1,-2,1,0,2,2,1,0
67618402783,-1,1,3,2,-2,-3,1,-2
67618410855,0,-2,2,2,1,1,0,-1
67618410855,-3,1,-8,-2,-3,-1,0,0
67618425805,-2,-2,-1,-4,-4,-3,-2,1
67618425805,-2,1,-6,-2,2,-1,-2,1
67618426561,-1,-3,-14,-2,-3,-1,1,0
67618426561,0,1,-2,-8,-2,-2,-1,-1
67618440223,1,-2,4,10,0,1,1,-2
67618440223,0,-3,-2,1,1,3,-1,-1
67618447755,-4,0,3,0,0,1,0,-1
67618447755,-1,-2,-4,2,3,1,1,-1
67618462597,-4,-3,-2,-7,-3,-4,-2,-2
67618462597,-1,-13,10,1,-5,-2,-2,-1
67618471011,-2,-2,-8,-10,0,-1,-4,-1
67618471011,0,1,2,2,-3,-2,-1,-1
