timestamp,emg1,emg2,emg3,emg4,emg5,emg6,emg7,emg8
67784694360,0,1,-1,-1,2,1,0,0
67784694360,0,0,0,-1,1,0,0,-1
67784695114,-1,-2,-1,-3,-7,-3,0,-1
67784695114,0,-1,1,0,-3,-1,-1,0
67784696070,-1,0,-1,1,3,0,0,-1
67784696070,-1,-2,-2,-1,-1,-3,-3,0
67784696732,-1,-2,-2,-4,-2,-1,1,0
67784696732,-2,-1,0,-1,-2,-3,-1,-2
67784708148,-1,-1,-1,0,-5,-1,-1,-1
67784708148,-2,-2,-2,1,2,-3,-2,-2
67784716156,-1,1,0,1,5,3,-1,0
67784716156,-1,0,-1,-2,-3,-3,-2,-2
67784723170,0,0,-3,-4,1,2,0,-1
67784723170,1,-1,-1,2,-1,-2,0,0
67784737446,-1,1,1,4,4,1,0,1
67784737446,0,0,-1,-3,-3,2,1,-1
67784746833,-1,-2,1,1,-2,-2,-3,-1
67784746833,-3,0,-1,1,-9,-5,-2,0
67784752461,0,-5,-6,-10,13,7,3,0
67784752461,-2,-2,-1,-4,-14,-5,-3,-1
67784768241,0,2,4,21,26,6,2,1
67784768241,-2,-4,-3,-3,-2,0,-2,-1
67784776095,-3,0,-1,0,-10,-4,-3,-3
67784776095,2,4,5,7,16,6,3,3
67784815657,0,-1,0,2,-1,-1,-1,0
67784815657,-1,0,-1,-5,-1,0,-1,-1
67784816608,0,-2,-1,-2,-1,-3,-2,-1
67784816608,-2,-2,-3,2,-15,-2,-1,-2
67784817244,1,1,3,7,17,3,3,0
67784817244,-2,-2,-5,-6,-7,-3,-2,0
67784819666,-1,0,-3,2,-3,-2,-1,-1
67784819666,-1,-1,-3,1,4,2,-1,-1
67784828565,-4,-1,1,-14,-22,-8,-5,-4
67784828565,0,0,7,17,21,8,3,1
67784834901,-1,-4,-3,-8,10,1,0,-2
67784834901,-1,0,-4,-4,-1,3,0,1
67784843669,-2,-4,-9,4,-4,-4,-3,-2
67784843669,2,2,1,2,-6,-4,-2,-2
67784857332,-1,0,-1,-9,-13,-4,-2,-1
67784857332,-2,-1,0,-2,4,0,0,1
67784866127,-2,0,9,8,-8,-6,-4,-3
67784866127,-3,-6,-16,-19,-7,-4,-2,-1
67784879744,-1,0,-2,1,-5,-1,-1,-1
67784879744,-2,-2,-3,4,-2,-7,-2,-4
67784888632,2,0,-1,-6,7,7,2,1
67784888632,-1,-2,2,14,-3,-2,0,-3
67784894848,0,2,-3,-16,-8,-1,0,1
67784894848,0,1,-2,8,2,-1,-1,-1
67784903644,-3,-3,-4,-14,-11,-4,-2,-3
67784903644,-2,-1,6,4,-1,-4,-3,0
67784917342,-2,-4,-5,-3,-6,-5,-3,-4
67784917342,-1,0,1,5,-1,-5,-3,-2
67784926211,-1,-3,-6,-2,-3,4,2,1
67784926211,-1,0,4,-3,-5,0,-1,-1
67784932357,-1,-1,0,2,2,0,-1,-1
67784932357,-1,-3,-4,-12,-9,-7,-4,-1
67784948688,-2,-1,-3,0,2,-1,-2,-2
67784948688,-2,-3,-4,-12,1,1,2,-2
67784954840,0,0,8,21,15,4,1,0
67784954840,-1,0,-2,-2,1,-1,1,0
67784963638,1,-3,-2,-9,1,-3,-4,-1
67784963638,1,3,-2,-3,10,6,3,0
67784977370,-1,-5,-11,3,-4,-3,-1,-1
67784977370,1,-1,-3,-3,6,5,1,-1
67784986100,-1,-6,-5,-3,-13,-3,0,0
67784986100,-1,0,2,-4,-8,-12,-7,-5
67784992343,0,-1,-2,-12,-2,2,0,1
67784992343,0,0,16,8,-4,2,1,1
67785008704,2,5,-16,11,31,8,3,4
67785008704,-4,-2,2,-4,-11,-4,-2,-2
67785014837,-2,-1,2,5,-1,-4,-2,-2
67785014837,-1,1,4,-4,-4,0,-1,-2
67785031127,-2,0,0,-1,-1,0,2,0
67785031127,-1,-2,-10,0,-4,4,2,1
67785037310,0,3,1,5,16,6,2,0
67785037310,0,2,5,-3,-2,-1,-1,0
67785046120,-1,1,9,0,4,1,1,-1
67785046120,1,2,8,15,-2,-4,0,1
67785052154,-1,-3,-2,-16,-11,-2,-1,-2
67785052154,-4,-3,-3,18,8,-4,-5,-2
67785068634,3,2,5,1,28,7,3,1
67785068634,-1,0,-4,-1,-5,-2,-4,-2
67785074800,-2,1,8,10,0,1,1,-1
67785074800,-1,-6,-6,-11,0,-1,1,0
67785091110,-2,-2,-4,-7,-15,-5,-6,-2
67785091110,1,-1,-5,-8,6,0,-1,-1
67785097416,-2,-3,-6,1,2,5,2,1
67785097416,-1,-5,-4,-6,-9,0,1,-3
67785106115,-2,-2,6,3,-9,-5,-2,-3
67785106115,1,4,4,1,3,-1,-1,1
67785119676,1,3,2,-3,-9,-4,-4,-1
67785119676,-2,-4,0,-1,-2,1,0,-1
67785128533,-1,2,0,-6,-1,-2,-2,-1
67785128533,-1,-4,0,5,1,0,-2,-3
67785134790,-1,3,5,-8,-5,-3,-2,-1
67785134790,-1,-6,-11,-10,4,0,0,-2
67785151114,0,4,9,11,-11,-2,-3,-2
67785151114,-1,1,-6,2,4,3,2,1
67785157347,-3,-4,-3,-8,-6,-5,-2,-2
67785157347,1,5,0,-10,-10,-10,-6,0
67785166163,-5,-6,-7,7,-4,3,2,-2
67785166163,-1,-4,7,-7,-3,-4,-2,0
67785179745,0,1,-11,17,11,1,0,0
67785179745,-2,1,9,-6,-3,-1,-4,-3
67785188593,1,-2,0,1,-8,-4,-3,-1
67785188593,0,-3,1,-8,8,2,1,-1
67785194648,-3,-2,-13,-10,-4,-4,-2,-1
67785194648,1,1,-7,-2,-6,-4,0,2
67785209776,-2,1,24,-1,-6,-5,-3,-1
67785209776,-1,6,7,6,-1,0,-1,-1
67785217246,-2,-7,-6,-9,-8,-4,-1,-2
67785217246,-5,-10,-39,14,11,6,1,-2
67785226117,1,8,9,-7,-1,-3,-3,0
67785226117,-1,-12,-22,-17,-10,-4,-1,-1
67785239802,1,-6,-6,8,10,4,0,0
67785239802,-1,7,5,-2,-5,-1,-1,0
67785248636,-2,-3,-4,3,4,1,2,1
67785248636,-1,-1,-13,-10,-18,-8,-4,-2
67785254839,-3,0,-2,1,2,0,-1,-1
67785254839,-2,-11,2,8,23,3,1,-2
67785269784,2,7,-2,-5,-7,-4,-2,-2
67785269784,0,-1,-4,3,-5,1,0,-1
67785277309,0,-4,0,-12,-5,1,1,0
67785277309,1,4,33,7,-1,-2,-2,0
67785286147,-1,3,-38,-4,-1,-1,-2,-1
67785286147,-2,-2,17,1,5,-1,-1,-1
67785299773,-2,5,-4,9,-5,-2,0,0
67785299773,-2,-3,2,4,-1,-1,-2,-4
67785308689,8,10,17,-1,3,0,0,0
67785308689,-7,-20,-42,-4,0,1,-1,-1
67785314811,-2,4,26,-9,-9,-6,-4,-3
67785314811,-1,-1,7,0,-7,1,1,2
67785323627,0,-5,6,7,6,0,1,0
67785323627,1,9,3,4,12,3,1,-1
67785337340,1,-3,1,8,-4,-1,-2,-2
67785337340,-1,2,-9,-8,-2,1,0,-1
67785346177,-2,-7,20,0,-3,-1,-2,-2
67785346177,-9,6,26,1,1,0,2,5
67785359851,12,-4,-4,3,-2,-3,-5,-14
67785359851,-11,5,16,0,-5,-5,-7,-5
67785368630,17,-1,-36,-13,0,-1,6,-1
67785368630,-7,-3,49,6,-3,-1,-3,2
67785374829,-6,-9,-47,-3,4,1,5,29
67785374829,-23,-3,-12,-1,-2,-1,-4,-23
67785383624,29,8,2,5,0,-6,-10,-6
67785383624,7,-9,-30,-7,-1,3,3,-3
67785397368,-13,10,56,12,0,-4,-4,12
67785397368,30,-6,-28,-10,1,4,7,-2
67785406108,-60,0,-2,2,-2,1,3,8
67785406108,-17,-2,-12,13,-2,0,-1,8
67785419836,5,-21,-23,-28,-7,-7,-11,-40
67785419836,-6,7,-4,-16,0,0,-4,-2
67785428642,31,-15,-21,19,0,3,8,28
67785428642,-46,0,21,6,-2,-4,-3,-44
67785434903,53,11,1,10,6,4,4,13
67785434903,-45,-8,5,-12,-5,-6,-2,-5
67785449701,-24,-18,-34,-16,-4,-2,-3,10
67785449701,45,-4,-7,-4,-1,-7,-7,-8
67785457054,-8,-4,-4,21,2,6,7,10
67785457054,17,17,-2,-31,-3,-4,21,4
67785466234,20,8,30,-2,-4,6,-1,-2
67785466234,-12,-9,-12,12,11,-2,-7,7
67785479758,-30,-6,-30,6,-3,-1,-1,-16
67785479758,39,12,0,-11,-10,-2,-4,14
67785488696,-21,0,29,-6,-3,-3,-4,2
67785488696,17,5,5,-9,-18,-4,1,1
67785494718,4,4,10,0,18,6,1,3
67785494718,-15,-5,-4,6,-2,1,-3,6
67785509582,-7,-1,8,12,-4,-5,-4,21
67785509582,-6,-3,-27,-22,-2,3,4,-66
67785517366,-21,-3,22,-8,-4,-4,-6,-10
67785517366,47,2,-2,26,2,-1,-6,3
67785526159,36,5,-11,-22,8,4,7,-2
67785526159,-58,0,-5,-4,-5,-4,-16,-4
67785539680,6,-1,-5,-9,-6,-1,15,0
67785539680,-28,-5,1,5,-5,-5,-22,8
67785548593,-32,-18,0,-1,1,0,3,-25
67785548593,32,11,-4,0,4,3,5,41
67785554777,13,-5,-3,-8,-11,-5,-7,0
67785554777,-10,-1,10,2,-3,-3,-6,-13
67785569719,-2,-2,-24,0,2,-5,-9,-12
67785569719,-2,-5,5,11,-1,4,6,11
67785577269,-14,5,22,-4,-2,-3,-1,-5
67785577269,2,-4,0,15,-1,1,8,10
67785586085,-4,6,21,-11,-4,-2,-2,-12
67785586085,-9,-3,-5,9,1,-3,1,0
67785599739,21,3,2,-14,-2,-1,-5,4
67785599739,-5,-2,-24,-6,-1,-1,3,2
67785608683,0,-1,-6,-7,-10,-3,-1,-8
67785608683,9,5,24,29,8,4,1,19
67785614789,-20,0,-11,-23,10,0,2,1
67785614789,-10,-8,7,8,0,2,-2,-23
67785629788,-18,5,-1,-15,1,2,1,-7
67785629788,22,2,-2,5,-2,2,1,10
67785637335,-10,0,-3,4,-5,-3,-4,-4
67785637335,8,-3,17,3,2,-1,-1,10
67785653695,11,-12,-19,8,2,2,3,-1
67785653695,3,8,10,-14,-5,-2,2,-5
67785659794,3,-3,-6,8,3,-1,-2,1
67785659794,2,2,2,-1,5,1,-2,4
67785668655,0,-2,-12,9,-3,-2,0,-2
67785668655,12,-5,-1,-7,0,-2,-3,-2
67785674737,-2,7,8,-8,-10,-3,-6,4
67785674737,-26,-5,-4,15,21,3,7,3
67785689773,-19,-4,-4,4,-3,-2,-6,-10
67785689773,24,-3,10,3,-3,-5,-5,-9
67785697173,-10,6,28,2,5,3,5,15
67785697173,3,-12,-25,5,-16,-11,-26,-42
67785706111,9,1,-12,-8,1,1,4,4
67785706111,-20,-1,-11,-17,-4,-2,-2,3
67785719904,4,-4,-5,-6,0,-4,-6,-2
67785719904,13,3,9,8,0,1,1,23
67785728559,-11,-2,9,13,5,1,2,-3
67785728559,11,-4,-16,-18,-4,0,2,-2
67785734784,-8,2,-11,11,0,-1,-2,7
67785734784,6,8,1,-5,-1,-1,4,5
67785749809,21,-12,-7,5,-1,-1,-3,0
67785749809,-15,9,29,11,8,-1,2,1
67785757296,25,-4,-30,2,-1,0,3,17
67785757296,-8,-6,11,1,-2,-2,-3,-30
67785766165,9,7,-17,-50,-18,-5,-10,-5
67785766165,-1,1,3,24,9,6,5,9
67785779782,-16,-7,5,-4,5,2,-3,-10
67785779782,13,2,-3,4,-8,-3,4,8
67785788694,-5,13,41,-8,-9,-2,-7,1
67785788694,25,-5,-18,-8,-14,-7,-1,1
67785802827,-11,-10,-11,-7,0,-2,0,-12
67785802827,1,0,-2,5,11,7,7,10
67785809819,-3,6,17,13,6,0,1,-7
67785809819,-4,-3,-3,0,0,-1,-3,22
67785826194,-2,4,16,11,-2,-1,-1,-13
67785826194,-13,-20,-11,-16,-3,-5,-4,5
67785827604,-10,5,-13,9,7,2,-1,5
67785827604,-8,-13,-10,-11,-2,-2,-3,-6
67785839673,-2,-2,-11,-8,-5,-3,-4,-17
67785839673,-4,3,8,-24,-8,-2,-2,3
67785848619,4,-4,-7,26,7,1,0,11
67785848619,-7,1,-9,-24,-6,0,0,-16
67785863041,-5,1,5,28,41,11,3,-2
67785863041,9,4,-5,-4,-5,-1,-3,4
67785869716,-1,-13,1,-2,-6,-4,4,2
67785869716,4,5,3,1,-4,-4,-7,-3
67785886162,1,4,1,2,-12,-3,-3,3
67785886162,-10,0,3,-6,0,1,3,-4
67785887648,1,-9,-17,3,5,0,-2,3
67785887648,10,4,4,-4,1,0,1,3
67785899836,1,-1,-5,-5,-9,-4,-2,-7
67785899836,0,-2,4,-1,2,2,3,4
67785908632,-5,-5,-3,-2,-5,-4,-4,-6
67785908632,3,1,-3,-3,2,1,3,8
67785922987,3,-8,-28,-5,-9,-4,-3,-6
67785922987,-3,-1,-8,0,-4,-4,-2,0
67785929791,1,2,6,1,2,-1,-3,-3
67785929791,-13,-3,-9,1,5,6,1,-6
67785946142,-2,2,13,-1,-6,-1,-2,6
67785946142,-2,-1,0,-5,-1,-1,1,1
67785947635,-5,-2,-2,-3,-3,-1,0,-5
67785947635,-2,2,-2,-1,-1,-4,-3,1
67785959799,-21,-4,4,-2,-7,-2,-2,-20
67785959799,18,-2,-8,-3,3,1,-1,8
67785968594,4,6,2,1,0,-1,-1,2
67785968594,8,-1,-1,0,-4,-4,-7,-4
67785982996,-10,-3,10,3,-2,-2,5,5
67785982996,-3,0,-3,-1,-2,-3,-3,-7
67785989720,-5,-1,12,0,1,1,0,-6
67785989720,-2,-2,-2,-1,-2,-2,-3,8
67786006184,11,-1,-5,-3,-4,-2,-2,8
67786006184,-2,8,14,2,0,-2,-2,-1
67786007629,4,-4,-21,-5,-3,0,0,4
67786007629,-21,-6,-19,-6,0,-2,-2,-10
67786020449,15,2,8,5,-2,-2,-1,19
67786020449,-13,-2,2,1,2,1,0,-5
67786027313,13,-1,-2,-4,-1,-1,-1,5
67786027313,-3,0,5,2,1,1,1,-13
67786043027,-6,-2,-6,-2,1,1,-1,0
67786043027,-3,0,-3,-3,0,-2,0,3
67786049780,-19,-2,3,-2,-2,-1,-3,-11
67786049780,-3,-1,-4,0,-3,-4,-3,1
67786065970,3,0,14,3,1,2,0,2
67786065970,5,-1,-3,0,-1,-1,1,-5
67786067581,10,1,0,-1,0,-1,-2,5
67786067581,-12,-1,-1,-1,-3,0,3,-7
67786080345,-10,1,4,2,-4,-3,-6,-10
67786080345,8,1,-4,-1,3,2,2,-1
67786087317,-3,1,5,3,3,3,1,-5
67786087317,16,0,-1,-1,0,-2,-2,14
67786102770,0,-3,-5,-4,-1,-2,-3,-7
67786102770,-8,-2,-7,-2,-4,0,2,-1
67786109779,1,-2,-2,-2,-4,-5,-5,-2
67786109779,5,-1,12,4,1,1,0,13
67786126025,-2,2,-9,-5,-3,-1,1,-13
67786126025,-4,-2,11,1,0,-1,-3,0
67786127548,6,-1,-7,-1,2,1,-1,0
67786127548,-3,-10,2,-3,-2,-1,-1,6
67786139840,6,2,-2,0,-3,-2,-3,0
67786139840,-10,-4,-1,-3,-3,-4,-4,-8
67786148687,-3,-2,3,0,-2,-1,1,-2
67786148687,-2,1,2,1,1,1,1,-5
67786162866,-3,-2,-3,-1,0,0,0,3
67786162866,8,-1,-4,1,4,2,1,4
67786169770,-11,1,1,-2,-3,-2,-1,-1
67786169770,-10,-1,-5,-3,-1,-2,-2,-5
67786186134,12,1,0,-2,-1,-3,-1,1
67786186134,3,0,0,-1,-4,-1,1,5
67786187583,1,-2,-2,0,-1,-2,-3,-1
67786187583,-5,1,3,0,2,3,3,-4
67786199759,-5,-6,-14,-6,0,1,0,-5
67786199759,0,0,-1,1,-1,-2,-2,-2
67786208606,-3,-2,3,1,0,-3,-1,-3
67786208606,2,-2,-7,-3,-4,-3,-4,-3
67786223033,-1,1,-2,-1,-1,-2,-1,-14
67786223033,0,5,1,-2,-3,-2,-2,6
67786229713,-2,-7,1,1,-1,0,-1,0
67786229713,0,1,-3,-2,-3,-2,-1,-3
67786246162,-2,-3,-1,-2,-1,-2,-1,4
67786246162,3,1,-3,-2,-4,-1,-1,3
67786247546,-10,-3,6,1,-2,-2,-4,-7
67786247546,4,-1,-2,-3,-1,-1,-1,-6
67786259680,-10,0,1,1,-2,-1,0,3
67786259680,8,-2,-3,-2,1,2,1,3
67786268623,-2,0,3,2,0,-1,1,1
67786268623,3,-1,-3,-1,-2,-2,-3,-2
67786283044,-17,-2,4,0,-2,1,-2,-3
67786283044,-5,0,0,-2,-3,-3,-1,-5
67786289805,6,-2,-14,-7,-1,-1,0,2
67786289805,-3,0,3,1,-2,-4,-3,-3
67786306134,15,-1,-3,-2,-4,-4,-1,9
67786306134,-8,-5,-5,1,4,5,0,-5
67786307617,-1,-2,-1,-3,0,2,-1,2
67786307617,2,-4,0,-1,-1,-2,-1,0
67786319919,4,1,11,-2,-3,-1,-2,2
67786319919,-3,-4,-15,0,-1,0,-3,-3
67786328692,-8,-2,3,-1,-4,-1,1,3
67786328692,-11,0,-4,-2,-2,-2,-5,-28
67786342939,1,-3,4,2,1,0,0,3
67786342939,-9,-2,1,0,-2,-4,-3,-3
67786349674,6,2,-3,0,0,-1,0,-3
67786349674,-6,-2,5,3,5,4,3,9
67786365406,-2,-1,-7,-3,-3,-1,-2,-2
67786365406,4,0,2,-3,-4,-4,-2,-4
67786372275,-2,-4,-5,0,-3,-3,-1,-1
67786372275,-5,-3,0,-2,-3,-2,-2,1
67786379844,10,4,4,0,-1,-2,0,2
67786379844,-2,1,-6,0,-4,-1,0,3
67786388583,7,3,2,1,1,3,2,1
67786388583,0,-2,1,2,-1,-2,-2,-1
67786402806,-1,-3,-1,0,2,1,0,-1
67786402806,-11,-1,1,-2,-1,-3,-3,-1
67786409903,-2,1,-4,-1,0,0,1,-8
67786409903,17,2,-1,-2,0,0,0,16
67786425293,-9,-2,-1,-3,-3,-3,-6,-20
67786425293,4,0,1,0,-5,-1,0,1
67786432343,-4,-1,0,3,3,1,0,-4
67786432343,-1,0,-1,-2,2,0,0,5
67786448714,4,-2,-3,-1,1,2,1,7
67786448714,2,-2,-1,-1,-1,0,-1,-3
67786450101,-4,-2,3,-1,-5,-4,-3,-4
67786450101,0,0,-5,-1,-2,-3,-1,-4
67786463035,-1,-1,-6,-1,-1,-1,0,8
67786463035,-2,-2,2,-2,1,-1,0,-5
67786469950,-5,0,-2,0,-1,-1,-2,3
67786469950,5,0,1,-1,2,3,2,2
67786485341,-3,-1,-4,-1,-1,-1,0,-1
67786485341,0,-2,1,-1,1,1,0,5
67786492351,6,5,7,-2,-4,-3,-2,-2
67786492351,-7,-2,-9,-1,-3,-1,-1,-6
67786508631,-2,0,-4,-3,-3,-2,-4,-7
67786508631,-3,-1,1,-1,0,-1,-1,2
67786510085,13,-4,-2,-2,-3,-4,-5,3
67786510085,-12,0,1,-2,0,0,-2,-19
67786522989,1,-1,0,2,1,1,1,5
67786522989,3,0,3,-1,-1,-1,-2,1
67786529658,-15,-4,-7,-1,0,1,1,-2
67786529658,-7,-1,-4,-3,-3,-3,-2,-9
67786545532,8,-4,-1,-2,-2,-1,-1,7
67786545532,-8,-1,-5,-4,-1,-1,0,-2
67786552298,6,3,12,2,-3,-4,-4,1
67786552298,3,-4,-14,-3,-6,-5,-2,8
67786568681,-6,0,1,3,6,6,3,-3
67786568681,1,-2,-2,-1,-1,-1,-1,-1
67786570029,1,1,5,0,0,-2,-2,-1
67786570029,2,-5,-4,-1,-2,-4,-2,2
67786582919,-12,1,-2,-2,-2,-3,0,-6
67786582919,19,-5,-4,-2,-2,-2,-2,-1
67786589883,-5,-1,-4,-2,0,1,0,4
67786589883,6,2,5,-2,-1,-2,-3,-1
67786605299,-3,-1,-6,0,0,2,1,5
67786605299,2,0,10,1,0,-2,-3,-4
67786612224,0,1,-20,-1,0,0,0,0
67786612224,-6,-1,1,-1,-1,1,1,-3
67786628686,4,0,-4,-4,-1,-3,-4,-3
67786628686,-5,0,-1,1,-1,-1,-2,4
67786630080,-1,-1,-1,-3,-1,-2,-3,-7
67786630080,-2,-1,2,-1,-1,-1,0,2
67786643058,-1,-2,-2,1,-2,-3,-1,3
67786643058,-6,0,4,-1,-1,-1,-3,-5
67786649815,-4,-2,-14,-2,-1,-1,0,3
67786649815,-4,-1,3,2,4,2,-2,-10
67786665499,-1,-2,1,-3,-3,-1,-2,1
67786665499,1,-1,0,0,-2,-1,-1,1
67786672273,-2,-1,3,-2,-1,-1,1,-5
67786672273,0,1,-1,-1,-4,-1,-3,4
67786688662,1,0,-3,0,-1,-1,0,-4
67786688662,-14,0,-4,-2,1,0,1,-3
67786690052,11,-2,0,-1,0,-2,-3,-10
67786690052,-13,-3,0,0,1,3,4,4
67786702829,7,3,5,2,0,0,-2,1
67786702829,-3,-2,6,-2,-2,-2,-1,-1
67786709764,-5,-2,-4,-2,-4,-2,0,0
67786709764,9,0,0,-2,-4,-3,-3,2
67786725436,-3,-4,-3,-1,-1,-1,0,-3
67786725436,4,1,-2,0,0,2,1,12
67786732235,2,2,8,0,2,2,1,-2
67786732235,-2,-2,-1,-3,1,0,-1,2
67786748701,-5,-1,-1,-1,1,-2,-1,-1
67786748701,5,-1,-2,1,-1,-2,-3,-2
67786750092,-4,-2,-4,-3,-3,-2,-1,1
67786750092,-2,0,-2,-1,0,-3,-2,0
67786762860,2,-1,-1,-1,-1,1,0,1
67786762860,-3,1,-5,0,-2,-3,0,-8
67786769756,-3,-3,0,-3,-1,-1,-3,1
67786769756,-2,0,1,1,-1,1,1,-5
67786785484,-1,0,-3,-2,-1,-3,-1,-6
67786785484,-2,-3,-3,-1,1,0,-1,-1
67786792086,-4,-2,-1,1,-1,-2,-2,0
67786792086,4,0,-1,0,-1,-1,-2,3
67786808698,-2,-3,0,-2,-4,0,-2,-1
67786808698,-1,-1,-3,-2,-3,-1,-2,-2
67786810049,-8,-1,-1,-1,-1,-1,0,0
67786810049,-2,0,-2,0,0,-2,0,-2
67786822909,-1,0,0,-1,-3,-3,0,1
67786822909,-1,0,-1,0,-1,-1,-1,-1
67786829834,0,-1,0,0,2,1,2,-1
67786829834,-1,0,1,2,-3,-3,-1,0
67786845435,-7,-3,-6,-4,-1,0,-3,-3
67786845435,7,0,0,-1,-2,-3,-1,1
67786852192,-2,0,6,0,-1,-1,-2,-2
67786852192,0,-3,-4,-1,0,1,0,-2
67786868478,-2,0,-3,0,-1,-2,-1,4
67786868478,-2,-1,1,-2,0,-1,-1,-2
67786870086,0,0,0,-1,-4,-2,-2,-1
67786870086,-2,0,2,-3,-2,-1,-1,2
67786882779,0,-1,0,-1,1,0,-2,-6
67786882779,-5,-2,-3,0,-1,-3,-3,-10
67786889540,2,0,-4,-2,-2,0,0,3
67786889540,-6,0,0,-1,-2,0,-1,-2
67786905315,13,-1,-2,1,0,-1,1,11
67786905315,-12,-3,-2,-1,-1,0,0,-26
67786912280,-1,-2,-1,-2,-3,-3,-4,-1
67786912280,3,-1,-2,-1,0,-2,0,4
