timestamp,emg1,emg2,emg3,emg4,emg5,emg6,emg7,emg8
113283145763,-2,-1,0,2,-2,-1,0,2
113283145763,4,0,0,1,-1,-1,-2,8
113283146372,-1,-1,-2,-5,-3,-2,0,-1
113283146372,-1,-2,0,-5,-2,1,-2,-2
113283147281,-1,-3,-5,-3,0,-3,-2,-3
113283147281,-2,-2,0,-5,0,1,0,-3
113283147908,-1,-1,-1,15,-1,-3,-3,0
113283147908,-2,-2,-5,-27,-4,-3,-3,-6
113283152929,-1,0,1,10,1,1,-1,0
113283152929,-1,0,-2,-1,0,-2,0,-1
113283154731,1,-1,-2,0,-1,-2,1,2
113283154731,-1,0,1,8,-1,-2,-1,-1
113283159336,2,0,-1,-5,-2,0,0,0
113283159336,-2,1,3,1,0,-2,-1,-2
113283183152,0,-2,-4,-7,-1,1,-1,-4
113283183152,-1,-3,-3,-1,-1,-2,0,-3
113283185862,-1,-2,2,-1,0,-1,-2,2
113283185862,0,0,-2,10,-2,-1,-1,-4
113283188022,-4,-2,0,-22,-2,-2,-1,-3
113283188022,3,1,0,4,-1,0,0,10
113283220328,-1,-1,1,4,3,1,1,0
113283220328,-3,-2,-2,-1,-3,-2,-2,-5
113283226882,-1,0,5,10,-1,-1,-2,-3
113283226882,-1,-2,-4,-2,-3,-2,-1,-3
113283228303,0,-1,-2,-6,-2,1,-1,1
113283228303,-2,-1,0,1,-1,-1,-3,-5
113283249945,-3,1,0,-3,-1,-4,-4,-7
113283249945,5,-1,-3,-4,-1,-1,0,7
113283251531,-1,0,1,-1,-3,-2,0,-3
113283251531,-1,-3,-5,-3,0,-1,0,-1
113283252534,0,0,0,10,1,1,2,2
113283252534,-2,-2,-2,-26,-3,-1,0,-3
113283303622,2,0,2,11,0,2,4,14
113283303622,-2,-3,-2,11,-1,-3,-5,2
113283304411,-1,-2,-2,-1,-2,-3,-1,-2
113283304411,-3,-2,-2,-3,-2,-2,-2,-5
113283305301,-1,1,-1,-13,0,0,-1,-8
113283305301,-1,1,0,10,-1,1,1,0
113283316492,-2,-4,-8,-21,-2,-1,0,2
113283316492,-1,1,1,-9,-2,-5,-5,-12
113283355547,2,-3,-2,-2,-3,-1,0,7
113283355547,-1,0,3,3,-1,0,-1,6
113283356184,-1,-2,-1,20,-2,-3,-2,-2
113283356184,-2,-2,-3,0,1,1,3,3
113283357768,-5,-1,-1,-6,1,-3,-2,-10
113283357768,3,1,-2,-3,-1,0,2,8
113283362966,-1,-2,0,-4,1,0,-3,-1
113283362966,2,0,5,22,1,1,1,6
113283364363,-3,-6,-16,-34,-5,-4,-3,-8
113283364363,-3,-2,0,-5,-3,-4,-2,-6
113283365286,-1,2,-1,10,4,1,1,1
113283365286,0,-1,-2,-12,0,2,-1,1
113283369220,-3,0,2,18,-1,0,-3,-5
113283369220,2,-1,-1,-5,0,-1,1,-1
113283391743,0,-1,3,-1,1,2,-1,-7
113283391743,0,-2,-5,4,0,0,-1,10
113283393144,-1,-2,1,1,-1,0,-1,-1
113283393144,-1,-3,-6,-16,-3,-3,-2,0
113283398559,3,1,3,9,-2,-3,-2,-2
113283398559,-2,-1,0,-9,-1,1,2,-2
113283422256,-2,0,-2,-17,-1,-2,0,-4
113283422256,-3,1,0,7,1,0,-3,-7
113283422995,-1,1,5,4,0,0,2,5
113283422995,-2,-3,-9,-8,-3,-2,-4,-4
113283435882,-1,-1,-4,10,-3,-2,-4,-2
113283435882,-4,-2,-2,0,1,1,-1,-5
113283436833,3,0,-1,4,-3,-1,-2,7
113283436833,-2,0,4,9,-1,-2,-2,-3
113283460570,1,-1,5,-3,1,1,0,2
113283460570,-1,-2,-3,-4,-1,-1,-2,-13
113283461439,-2,-2,-3,2,-1,0,2,9
113283461439,-1,-1,0,0,-1,-1,-1,1
113283465275,0,-2,-2,1,-1,-1,-2,-1
113283465275,-2,0,2,-3,1,2,0,-2
113283489434,-2,0,-1,-2,-3,-7,-6,-5
113283489434,2,0,-1,4,0,-3,-1,-2
113283505507,0,0,1,-7,2,2,4,4
113283505507,-2,-3,-5,16,-3,0,-2,0
113283506474,-3,-1,0,7,2,2,-1,-4
113283506474,-1,1,0,-2,-1,-5,-2,-3
113283527292,-2,0,-2,-4,-1,-4,-3,-2
113283527292,0,0,2,-1,-2,-1,0,3
113283528027,-1,-2,-4,-10,0,2,0,-7
113283528027,-1,0,0,-1,-3,-1,-1,3
113283529622,1,-2,-1,16,-3,-2,-1,5
113283529622,0,0,0,-4,-2,-2,0,2
113283541016,-2,-2,0,-3,0,-1,-1,-4
113283541016,-3,-2,-2,-12,0,-1,-2,-4
113283564036,-3,0,2,11,3,3,4,-2
113283564036,1,-1,-7,-20,-3,-1,1,3
113283564911,-1,-1,-3,-5,-5,-4,-2,-4
113283564911,-4,-1,1,3,-1,-2,-3,-11
113283570383,4,0,1,4,1,-1,3,19
113283570383,-3,-2,-1,4,2,0,0,-1
113283578536,-2,0,-1,-13,-1,0,-1,0
113283578536,-1,-2,-1,-2,-1,1,0,-4
113283592819,-1,-1,-2,2,-3,-3,-6,-10
113283592819,-2,-1,0,2,0,-2,0,-1
113283600544,-1,-2,-5,-3,-2,-2,-1,-7
113283600544,-1,0,-1,5,-1,-1,2,10
113283609178,-1,-1,-2,0,-1,0,1,-3
113283609178,-1,-2,2,-1,2,-1,0,2
113283631699,-2,-2,0,-4,-2,-1,-1,-6
113283631699,2,0,-2,0,-1,-1,-1,2
113283633112,-1,1,0,-5,-2,-1,-4,-1
113283633112,0,-1,-1,-6,-2,-3,-2,-2
113283638603,-1,-2,0,3,-2,0,-2,-1
113283638603,0,-2,0,7,1,0,1,0
113283645284,-1,-1,-1,-7,-2,-3,-2,-1
113283645284,-2,1,-2,-18,-4,-2,-4,-6
113283669388,-5,-2,-4,-17,-2,0,-4,-3
113283669388,1,0,0,13,-1,0,0,2
113283671008,-2,-2,-1,4,0,2,3,-2
113283671008,1,-1,0,7,-1,1,1,-1
113283675076,0,1,3,2,0,-2,0,1
113283675076,-4,-3,-7,-18,-3,0,-3,-9
113283700620,1,1,0,1,-1,-7,-6,1
113283700620,-2,0,-1,3,0,-2,0,7
113283701342,-1,0,0,4,1,2,2,3
113283701342,-1,-2,0,-3,-2,-2,-3,-5
113283705336,-3,-1,-1,7,0,2,0,-6
113283705336,-1,0,0,-9,-2,-3,-4,-2
113283737249,0,-1,0,-5,-1,-4,-1,-2
113283737249,-1,-1,0,7,-1,0,-2,3
113283738823,-1,-3,-4,-15,-2,-1,0,-4
113283738823,-2,0,-2,1,-2,-1,-2,-2
113283739596,-1,-1,-4,2,-3,-1,-1,0
113283739596,1,2,0,-13,-1,2,-1,0
113283751755,-3,-1,2,10,-1,-1,-2,-1
113283751755,1,0,0,12,-1,-1,0,-6
113283767329,1,-1,-4,-1,-1,1,-2,2
113283767329,-2,-2,-2,-4,-2,-3,-4,-15
113283783666,-1,0,-1,-4,1,1,1,18
113283783666,1,-2,0,2,-1,-1,0,-3
113283784641,1,2,4,1,-1,-3,0,1
113283784641,-1,-1,1,-1,0,0,0,-2
113283804037,-1,1,-3,-1,-2,-3,-3,-7
113283804037,-3,-2,-2,-4,-3,-2,-3,-5
113283804834,0,0,-1,2,0,-3,-1,-1
113283804834,-2,-1,-1,0,0,2,3,2
113283819159,-4,-1,1,0,-1,-1,-3,-7
113283819159,0,-1,-2,-3,-2,-2,-1,4
113283819811,-3,-3,-3,5,0,1,0,-5
113283819811,1,-1,1,5,0,-1,-2,4
113283841534,-1,-2,-2,0,-1,-2,-2,-13
113283841534,1,0,0,-6,-2,-1,0,6
113283842477,-1,0,-2,-9,-3,1,0,1
113283842477,-3,-2,-2,3,1,3,-3,-7
113283847873,-1,-1,3,-2,0,1,-1,10
113283847873,-2,-2,-3,-1,-2,-4,-2,-9
113283855216,-1,-1,0,-4,-3,-6,-3,-1
113283855216,2,0,-1,-5,-2,-2,-1,4
113283872351,-2,0,0,3,-2,0,-1,-9
113283872351,-6,-1,1,0,0,0,-1,-4
113283878954,0,-3,-1,2,-1,-2,0,5
113283878954,15,0,-1,-2,-2,-2,-1,-1
113283886665,-22,-4,-4,-3,-1,-2,0,-1
113283886665,-4,-2,-1,-2,0,-1,-3,-5
113283910302,-5,-5,-8,-7,-2,-1,-2,-9
113283910302,-1,1,7,-10,1,0,3,19
113283911167,6,-1,-3,18,-2,-2,-2,-5
113283911167,5,-1,-1,2,0,3,1,9
113283922835,2,0,4,-1,0,0,-1,-9
113283922835,-6,-3,-2,0,-1,-1,-4,-8
113283947231,-2,-1,2,-4,-2,0,0,3
113283947231,17,0,-6,-3,-2,-1,-2,-2
113283948751,-14,-1,3,-2,-1,-1,-2,-6
113283948751,1,7,2,4,0,-1,2,10
113283949652,4,-7,2,-3,-1,-1,-2,-4
113283949652,-1,3,7,0,0,-1,1,1
113283978045,6,0,-4,-7,-2,-1,0,-2
113283978045,-5,-5,-3,3,-5,-3,-3,2
113283979051,-2,1,7,6,0,-1,-1,0
113283979051,-2,-6,-13,-22,-3,-1,-1,-2
113283982839,0,-3,2,10,2,-2,-1,-3
113283982839,-6,3,21,1,-1,-2,-3,-7
113283990165,6,-3,-19,-4,1,0,1,-1
113283990165,-2,4,-13,7,2,0,-1,4
113284014884,-4,4,19,-7,-2,0,-2,-3
113284014884,-1,-4,-31,-1,0,-2,-1,-3
113284015766,6,-3,14,2,-2,-2,0,1
113284015766,-7,-4,-2,2,0,-1,-1,-1
113284021706,-4,0,-10,6,0,0,2,-2
113284021706,1,-1,6,-2,1,-1,-3,-1
113284027831,-2,1,-3,-12,-1,1,0,0
113284027831,-9,-2,3,9,2,-1,-3,-11
113284061207,10,0,7,17,0,0,1,17
113284061207,-3,-7,-21,-7,-2,-2,-1,-4
113284061979,-2,-1,-3,-9,-3,-3,-3,-2
113284061979,1,-1,-3,-5,-1,0,0,-4
113284082295,-2,-3,-4,-7,0,1,0,3
113284082295,2,3,26,3,-3,-2,-2,-2
113284082999,2,1,-8,1,1,0,0,-5
113284082999,-6,-3,-12,-9,-1,-2,-3,0
113284084707,2,0,12,7,0,0,0,3
113284084707,-5,-12,-51,-15,-5,-5,-4,-4
113284087857,5,5,-13,-2,0,-1,-4,-1
113284087857,1,6,65,10,0,-2,-2,0
113284119662,-2,-3,-38,-24,-5,-1,0,0
113284119662,0,1,15,5,2,0,0,-6
113284120556,0,5,68,-5,-1,-1,2,2
113284120556,-2,-7,-68,7,-2,-2,-1,-2
113284122073,-2,-2,-5,-2,0,-1,-1,-3
113284122073,-3,-3,-8,-2,-4,-1,0,-1
113284132795,-3,-5,-10,-10,-1,-1,-1,-3
113284132795,0,1,7,2,0,0,2,2
113284149363,10,3,20,4,-1,-2,-3,-1
113284149363,0,-1,12,9,0,-2,-3,-2
113284155218,-6,2,-31,-1,1,1,1,0
113284155218,-6,-1,26,3,0,-1,-1,-3
113284164217,5,-1,-4,1,-2,-3,-2,1
113284164217,-7,7,25,-1,1,1,0,-6
113284187378,13,-1,-21,-6,0,2,3,5
113284187378,-22,-7,1,-10,-3,-1,-4,-3
113284188816,8,4,7,1,2,-3,-2,-3
113284188816,-3,2,15,8,-1,-1,-1,-3
113284189775,-3,-4,3,3,-1,-1,-2,-2
113284189775,3,2,-6,-5,-3,-1,-1,1
113284201655,-7,0,-9,-2,0,0,-1,-2
113284201655,2,2,41,4,-2,-2,-1,1
113284207853,-2,1,-15,5,1,-2,-1,-1
113284207853,5,-5,-13,-7,5,5,3,2
113284224649,-7,3,20,-3,-5,-2,-5,-3
113284224649,4,-2,-48,0,-4,-3,1,1
113284230364,-7,-9,-14,-1,-10,-1,-4,2
113284230364,1,1,-15,5,6,1,-1,-1
113284239175,-3,-4,7,-2,0,-5,-5,-6
113284239175,-2,-3,-25,-6,-4,-7,-1,-3
113284261037,-3,0,8,7,20,8,2,1
113284261037,6,10,40,5,1,0,2,1
113284268484,-3,-7,-62,0,-8,0,-2,-3
113284268484,-2,3,34,9,-6,0,2,1
113284269121,-4,-6,-42,-7,-6,-6,-5,-3
113284269121,4,1,16,-1,5,-3,-3,-1
113284292338,1,-1,-1,-4,2,-1,2,1
113284292338,-3,-2,10,-3,1,-2,-3,-1
113284293116,2,2,-4,-4,-8,-4,-3,-5
113284293116,1,-2,-13,3,-7,-3,-1,-2
113284305909,-5,-4,-1,-2,1,-5,-3,-3
113284305909,-2,-2,-9,-4,10,10,3,4
113284306643,1,3,23,2,0,3,2,1
113284306643,-1,-3,-9,-5,-6,-4,-3,-3
113284342963,-3,1,5,-5,-5,-2,0,-3
113284342963,1,1,13,11,2,-2,0,-1
113284360526,-4,-4,-11,-5,4,-2,-4,-1
113284360526,-1,0,9,0,-6,2,-1,2
113284361963,0,0,16,1,1,-2,-1,0
113284361963,-2,0,-12,-7,-1,-3,-2,-2
113284362994,-2,1,10,2,-4,-2,1,-1
113284362994,1,-2,-8,-9,-3,-2,-4,0
113284373410,0,0,1,1,4,3,2,3
113284373410,0,-3,-14,-7,-1,1,-1,-1
113284374254,-2,1,6,2,-4,-4,-5,-3
113284374254,1,-1,-2,-4,1,1,2,2
113284397330,-2,-1,-7,21,-2,1,0,-3
113284397330,0,-3,-9,-7,-2,-3,1,-1
113284398181,-1,-1,10,2,0,0,0,-3
113284398181,0,-1,-4,-4,0,-1,-2,1
113284404089,0,-2,-2,-3,0,3,1,1
113284404089,-1,-3,0,2,-1,0,-2,-2
113284410253,-3,-1,-4,-6,-2,-5,-3,-3
113284410253,-1,-2,-4,2,0,-1,0,0
113284433437,-1,0,15,-7,-4,-1,-1,-1
113284433437,0,1,-2,3,2,-2,0,-1
113284434169,2,1,18,0,-1,1,1,-1
113284434169,-3,-6,-21,-2,-1,-2,-2,-3
113284466203,-1,0,3,-7,2,0,0,2
113284466203,-1,-1,-6,-8,-2,0,-1,0
113284466989,0,0,-1,7,-2,-1,0,0
113284466989,1,1,11,-2,-3,-3,0,0
113284471000,-1,-1,-7,8,2,0,-2,0
113284471000,-3,-3,-4,-10,0,-1,-1,-1
113284471598,-1,-1,-4,-3,1,0,-2,0
113284471598,0,0,3,2,-2,0,-1,-2
113284510483,-3,-1,-8,-7,-3,-5,-2,-2
113284510483,-1,0,-11,-1,-7,-2,-2,-1
113284511146,0,1,13,0,5,-1,-1,-1
113284511146,-1,0,-1,1,3,2,0,-1
113284512772,0,-4,-5,-1,0,-2,-1,0
113284512772,-2,-1,-2,2,0,-2,-3,-1
113284516397,-1,-1,-1,-7,-10,-7,-4,-2
113284516397,1,-1,-4,17,3,1,2,0
113284540525,0,-3,-2,-6,3,4,0,2
113284540525,-1,0,0,-3,-1,-1,-1,-1
113284541389,0,-2,-2,-3,-2,0,1,-1
113284541389,-2,-2,0,-1,-5,-4,-1,-3
113284545303,-1,1,2,-2,-2,0,-2,-2
113284545303,-1,-1,0,2,0,-1,-1,-1
113284569733,-2,0,-5,7,0,-3,-3,-2
113284569733,-2,-1,-1,-5,-3,-1,-2,0
113284571347,-2,-1,3,-6,-2,-1,-2,-4
113284571347,0,-1,-2,-4,0,-1,-1,1
113284572249,-2,-2,-4,0,0,-1,1,0
113284572249,-2,-1,0,-4,-2,-2,-2,-2
113284582949,-2,-2,-6,-1,-4,-2,-1,-2
113284582949,0,0,0,-1,3,4,1,1
113284615431,-1,-3,-3,-5,-2,2,1,-1
113284615431,1,-2,-1,-6,-3,-3,-5,-1
113284616963,0,-1,-2,-1,-2,-2,0,1
113284616963,-1,-1,5,6,-8,1,1,1
113284637776,-1,-2,-5,-4,7,2,2,1
113284637776,-1,-1,-3,-12,6,3,-2,-2
113284639392,-1,1,2,10,-3,-2,-3,-3
113284639392,-1,-2,-3,-13,-3,-9,-5,-2
113284640268,0,-1,2,1,-8,0,-1,0
113284640268,-3,-1,0,-4,0,3,1,-1
113284652376,0,0,-1,3,2,1,3,-1
113284652376,-1,-2,-3,3,0,2,0,-3
113284653326,-2,0,2,2,-2,-6,-4,-2
113284653326,-1,0,0,0,-1,-7,-4,-3
113284674734,-1,-2,-4,-7,-2,2,2,1
113284674734,0,-1,-7,-2,1,1,-1,-2
113284675655,-1,0,3,-2,1,1,-1,-2
113284675655,0,0,1,5,-1,-2,0,0
113284688909,-2,-2,1,3,1,-2,-1,-2
113284688909,0,0,-1,-3,-1,-1,-3,-2
113284703996,-2,0,-2,0,-1,-1,-2,-2
113284703996,-2,-2,-3,0,-2,-3,1,-1
113284719170,-1,0,-1,0,-2,-6,-3,0
113284719170,-1,-2,0,-2,2,3,0,2
113284719847,0,1,0,-1,0,1,0,0
113284719847,-1,-1,-2,1,-4,-2,-1,-2
113284741687,-3,-1,0,-4,-1,-3,-1,-1
113284741687,0,-1,-1,8,2,1,2,0
113284742307,-1,-2,-1,-16,-5,-2,-2,-2
113284742307,-1,-2,-4,-4,1,-2,-1,-1
113284756677,0,0,0,7,2,-1,-3,-3
113284756677,-1,-1,-1,-15,-7,-4,0,0
113284757324,1,-1,-5,-7,2,3,2,1
113284757324,0,-1,1,3,8,0,-1,-2
113284779151,1,-1,-5,-7,-1,2,0,-1
113284779151,0,0,2,5,0,-2,-1,-3
113284779811,-1,-2,-2,-1,-6,-3,-1,0
113284779811,-1,-1,0,-3,-4,1,-2,1
113284810387,-1,-1,-1,-2,1,-2,-2,0
113284810387,0,1,-2,-2,1,-1,-2,-3
113284811159,0,-1,0,6,-3,-5,-3,-3
113284811159,0,0,1,3,-1,1,1,0
113284812773,-1,-1,0,-1,-1,0,-2,-2
113284812773,-1,-1,-2,-2,-2,0,0,1
113284824190,-3,-1,-1,0,0,-1,-2,-3
113284824190,0,-1,-2,10,-4,-2,-2,-1
113284825648,-1,0,1,-3,1,-1,0,-1
113284825648,-2,-1,-2,-9,0,-1,-1,-2
113284846748,0,-2,-1,3,2,0,-1,-2
113284846748,-1,-1,0,-3,-2,-1,-1,0
113284848123,-2,0,0,0,-3,-1,-1,-2
113284848123,-1,-3,-2,5,0,-1,-3,-3
113284877636,-2,-3,-2,0,0,0,-1,0
113284877636,-2,-2,-1,-6,-4,0,-1,-1
113284879214,-1,-2,0,-1,1,0,1,1
113284879214,-1,1,0,-3,0,-1,1,-1
113284915418,1,-2,-1,12,-4,-1,-1,-2
113284915418,-2,-1,-4,-2,-2,-2,-2,-1
113284916914,0,-1,2,3,-2,-2,0,0
113284916914,-2,-3,-1,-2,0,-2,1,-1
113284917791,-1,-1,0,2,1,-1,0,0
113284917791,-1,1,-1,-1,1,1,0,0
113284930459,-1,-2,-2,1,-2,-2,-1,-4
113284930459,1,2,0,-3,-2,-1,-1,-1
113284931069,-2,0,0,-6,-1,-3,0,0
113284931069,-1,-1,-1,-2,-7,-2,-2,-2
113284950578,-1,-1,-2,-5,3,0,-1,1
113284950578,2,-1,0,5,2,2,0,-2
113284967948,0,-1,-1,-4,-1,-1,-1,1
113284967948,0,0,-2,-4,-4,-2,-2,-1
113284982788,0,0,2,3,-7,-5,0,0
113284982788,0,-2,-1,2,0,3,3,2
113284983771,-1,-1,-2,-7,1,1,-2,-2
113284983771,1,0,0,3,0,-4,0,-1
113284985271,-3,-2,-5,-5,0,0,-1,-2
113284985271,-1,-1,0,4,0,-4,-3,-2
113285020515,0,0,1,-3,-2,0,0,-1
113285020515,1,-2,-1,-1,-2,-1,-1,-2
113285021956,-1,-1,0,-2,2,0,-2,-2
113285021956,-2,-1,-1,-2,-2,-2,-1,1
113285022809,-1,0,1,2,-1,-2,-2,-2
113285022809,-2,-3,-1,-2,3,-2,-1,-1
113285035249,1,-1,-2,0,2,3,2,2
113285035249,-3,-1,-1,3,-2,1,-2,0
113285049500,0,-1,-1,-14,-4,-4,-3,-1
113285049500,-1,0,-1,5,0,0,0,0
113285050328,-2,-1,-1,-3,-5,-2,-4,-2
113285050328,-1,-2,-1,-3,-3,-2,-3,-4
113285087761,-2,-3,-1,4,0,1,0,-1
113285087761,-2,-1,-1,-1,1,2,-1,-1
113285089384,-1,-1,-1,-2,0,2,0,-1
113285089384,-2,-1,-3,1,0,1,0,-2
113285093700,-1,0,-2,-1,-6,-1,1,-2
113285093700,-1,-1,0,-2,3,-2,-1,-2
113285101257,0,0,-1,1,1,-1,-3,0
113285101257,-2,-2,0,-4,-1,-1,0,-1
113285125290,-2,-1,-2,-1,-1,-1,-1,-1
113285125290,-1,0,-1,-4,-4,1,-1,-1
113285126242,-1,-1,-1,-5,1,1,3,1
113285126242,-3,-2,-2,8,0,1,0,1
113285127772,0,-2,-2,0,-2,-2,0,0
113285127772,-1,0,-2,-1,0,-4,-3,-4
113285139214,0,-1,0,2,-1,0,-2,-2
113285139214,-2,1,0,-6,-1,0,-3,-2
113285192952,1,0,1,1,1,1,1,2
113285192952,0,-1,-1,1,-4,-2,-1,-3
113285193675,-3,-1,0,6,5,-1,-1,-2
113285193675,-1,-2,0,-15,-1,1,1,-2
113285195246,-2,-1,1,-2,-2,-3,-3,-2
113285195246,-1,0,-2,-3,-2,0,0,-1
113285207999,0,-1,-2,0,1,2,0,2
113285207999,-1,-2,-1,2,-2,-2,0,-1
113285209441,0,0,0,-2,-3,0,-1,-3
113285209441,0,-2,0,-2,-4,-6,-4,-2
