timestamp,emg1,emg2,emg3,emg4,emg5,emg6,emg7,emg8
68037422555,0,-4,-3,-1,-2,-2,2,-2
68037422555,-2,0,-1,-2,-2,-3,-3,-1
68037423545,-2,0,0,0,0,2,1,-1
68037423545,-3,0,-1,-1,-2,-3,-1,-1
68037424210,-3,0,0,0,-3,-2,-2,0
68037424210,0,-2,-1,1,3,3,-1,0
68037427692,0,0,-2,-2,-3,-2,-1,-2
68037427692,0,-1,-2,-1,0,-2,-2,-1
68037434333,-1,1,1,0,-3,-2,-1,-1
68037434333,-2,0,-2,-2,-7,-6,-4,-3
68037442979,-1,-2,0,1,3,4,3,1
68037442979,0,-2,-1,-2,-1,1,1,0
68037450547,-1,-1,-2,-3,-1,-3,2,-1
68037450547,-1,1,0,1,2,1,-4,-1
68037464295,-1,-2,-3,-2,-4,-1,-2,-2
68037464295,-3,-1,-3,-4,-3,-2,-1,0
68037475830,1,-4,-3,-2,-1,0,-2,-1
68037475830,-2,1,-1,-1,-1,0,4,0
68037479270,1,0,-1,-1,0,-2,0,0
68037479270,0,-1,-2,1,1,2,-1,0
68037494367,0,-2,-2,-2,-1,-2,-5,-1
68037494367,0,0,-2,0,-1,0,0,1
68037502681,-2,-1,-1,-3,-2,-4,-3,0
68037502681,-2,0,0,0,-2,-1,2,-2
68037542338,1,0,-1,1,0,1,0,0
68037542338,-2,-3,-1,-3,-2,-2,-3,-2
68037543361,0,-1,-1,-1,-1,1,1,0
68037543361,-2,0,-2,-2,0,0,-2,-1
68037544028,-3,-2,-2,-2,-2,-3,-2,0
68037544028,0,-1,0,0,-4,-3,-1,-2
68037547266,-2,-1,-2,-1,-2,-2,-3,-2
68037547266,-2,-2,-2,-1,-1,-1,0,-1
68037554027,0,0,0,2,1,0,1,-1
68037554027,-3,-3,-2,1,1,1,0,0
68037561377,0,-1,-1,-2,-4,-6,-7,-2
68037561377,-2,-2,-1,-1,-1,0,5,-1
68037570389,-1,1,-1,-4,-7,-6,-3,-2
68037570389,0,-3,-1,0,4,6,3,1
68037583990,0,1,0,-1,-1,-1,1,-1
68037583990,-1,1,-1,-1,0,-3,-6,-2
68037592899,-1,-4,-1,-3,-4,-2,-1,-3
68037592899,2,4,0,0,0,-2,0,0
68037599056,-3,-3,-1,-2,-1,0,-4,0
68037599056,0,-1,0,0,-2,-1,0,0
68037613983,0,-1,-1,1,1,1,2,1
68037613983,-2,-1,-3,-4,-5,-5,-4,-1
68037621607,-1,-2,-2,0,0,0,3,-2
68037621607,0,-2,0,3,3,3,-1,1
68037630446,-3,-1,0,-1,-2,-3,1,-2
68037630446,-1,0,-2,0,1,-1,0,1
68037643925,1,-2,-3,-2,-2,-2,-4,-3
68037643925,0,-2,0,-2,-2,1,5,0
68037652993,2,2,1,1,2,1,-1,-1
68037652993,-2,-1,0,-1,-1,-2,-3,-2
68037658961,-1,-4,-1,-2,-3,-5,0,-2
68037658961,-1,1,0,1,0,-1,-6,0
68037673915,-2,-3,0,-1,1,4,0,0
68037673915,1,4,1,0,-4,-3,0,0
68037681440,0,-2,0,1,3,2,0,0
68037681440,0,-2,-2,-3,-3,-3,-3,-1
68037690354,0,0,-2,1,2,-3,-1,-2
68037690354,0,-2,0,0,-3,-1,-3,-1
68037704106,-2,2,-1,-1,1,2,2,-1
68037704106,-1,-1,-1,-1,-1,-2,1,-2
68037712936,-2,-2,-3,-3,-2,2,-1,-3
68037712936,0,1,-1,-1,-2,0,-1,-1
68037719117,-1,2,-2,-1,0,-3,0,0
68037719117,-1,-3,-1,1,-1,-4,0,-1
68037734104,-1,-3,-3,-2,0,1,0,-1
68037734104,-1,-2,-1,-1,2,-1,1,0
68037741616,0,-1,0,0,-3,-2,-2,1
68037741616,-1,1,0,-2,-4,-3,-2,-2
68037750407,-1,0,-2,-2,-3,-1,0,-2
68037750407,-1,-1,-2,-1,-2,-1,-1,0
68037763969,0,1,0,1,0,4,0,0
68037763969,-1,-4,-2,-1,-2,-2,-3,-1
68037772812,-1,1,1,2,1,-2,-2,-1
68037772812,0,0,0,0,1,-3,-3,0
68037778850,0,0,-1,-3,-1,2,3,0
68037778850,-1,1,-1,-2,-3,0,-4,-2
68037794019,0,-1,0,-2,-1,0,1,0
68037794019,-1,-2,-1,-1,-1,0,-2,-3
68037801354,-1,0,-1,-2,-3,-1,0,0
68037801354,-2,-1,-3,-3,-4,-1,-1,-2
68037810362,0,-1,0,-2,-4,-6,-4,-1
68037810362,-2,-2,-2,1,6,5,-1,-1
68037824073,0,-2,-1,-1,-1,-1,7,0
68037824073,0,-2,-2,-4,-2,-3,-2,-2
68037832860,-1,0,-1,0,-1,-1,-3,0
68037832860,-2,-1,1,-2,-2,-1,3,0
68037839000,-2,-2,-1,0,-3,-3,-7,-3
68037839000,-1,-3,-1,-1,0,-2,1,-1
68037854119,0,-2,0,2,2,2,2,0
68037854119,2,1,-2,-3,-5,-4,-3,-3
68037861582,0,1,1,0,2,1,1,-2
68037861582,0,1,2,3,5,5,3,0
68037870409,0,-1,1,-1,-5,-2,-6,-2
68037870409,-4,-2,-2,0,0,-1,2,-1
68037884229,0,-1,-1,-3,-3,-3,0,0
68037884229,-1,0,-1,3,3,2,-3,-2
68037892973,0,-4,-2,-3,0,0,-2,-1
68037892973,1,-1,-1,-2,-2,-1,7,1
68037899133,-2,-1,-2,-2,-3,-3,-4,-3
68037899133,-2,-1,-2,-1,-1,-2,2,0
68037914051,1,1,0,-1,0,0,0,0
68037914051,-3,-1,-2,-4,-2,-3,-3,-2
68037921666,0,-1,-2,-1,-2,-1,-3,-1
68037921666,-1,-1,0,-1,-1,-2,-2,1
68037930483,-1,-1,-1,-2,-3,-3,-2,-1
68037930483,0,-2,0,1,1,-1,-4,-1
68037943996,-4,2,1,2,0,-2,-1,0
68037943996,0,-1,-1,0,0,3,2,0
68037952943,-1,1,-1,-2,0,0,0,0
68037952943,-2,-3,-1,0,-3,-3,-5,-3
68037967063,-1,-1,0,-1,-4,-1,-1,-1
68037967063,0,0,-1,-3,0,0,-2,-2
68037973954,-1,-1,-3,-3,1,-1,-1,-2
68037973954,-1,-1,0,-3,-2,-1,-1,0
68037981486,-2,-1,-3,-1,1,-1,-1,1
68037981486,0,1,4,3,-4,-1,0,-1
68037990425,-1,-2,-9,-10,-1,-1,-1,1
68037990425,0,3,2,-1,1,1,-1,-4
68038004032,0,1,0,2,-1,-3,-1,1
68038004032,-1,0,-6,-2,0,-2,-3,-2
68038012958,-5,-1,0,-2,-2,-4,-2,1
68038012958,-1,-5,-14,-14,-4,0,-4,-3
68038027163,2,-7,8,10,3,5,7,1
68038027163,-1,1,7,9,3,-1,-1,1
68038033904,-4,-2,-9,-4,-2,-2,-1,-1
68038033904,-1,1,-1,-1,-1,-3,-1,-1
68038041533,-1,-5,-2,-1,3,2,-1,-1
68038041533,-5,0,-5,-11,-4,-1,-1,-2
68038050522,4,-2,0,8,-4,-4,-11,-4
68038050522,0,-3,-6,-13,-3,3,10,0
68038063950,-2,1,7,8,-3,-4,-1,-5
68038063950,11,1,4,0,-5,-4,-9,-1
68038072861,-18,-1,1,-5,-3,-4,-5,-2
68038072861,1,0,1,7,4,1,-1,2
68038087108,-4,0,-7,-10,-3,-3,-3,4
68038087108,-4,-3,-2,-2,0,1,4,-1
68038094093,7,1,-3,-2,-1,2,2,-1
68038094093,-3,-2,6,-2,-4,-5,-6,-1
68038101401,-3,0,6,1,0,1,-1,-4
68038101401,-8,-1,-4,0,0,-1,-1,-1
68038110388,8,-1,8,3,-1,2,2,1
68038110388,-2,0,-6,-6,-4,-2,0,-1
68038124658,3,-6,-15,-13,0,-1,-4,-1
68038124658,-10,-2,-9,14,-1,-4,-2,1
68038131568,10,2,21,9,6,2,4,-7
68038131568,-6,-2,-13,-4,-1,0,-1,1
68038147312,20,7,6,5,-1,-1,1,14
68038147312,10,-4,-21,-32,-5,0,-5,-3
68038154020,-17,-4,5,4,-2,-2,3,-6
68038154020,4,2,13,8,3,1,-3,-3
68038161570,-5,-1,-7,-4,-1,-1,0,1
68038161570,-3,1,7,4,2,-1,2,1
68038176618,0,5,1,-1,0,-2,-9,1
68038176618,3,2,-3,4,-2,-3,6,-9
68038184792,-5,-5,5,4,5,0,-12,-3
68038184792,9,-4,-13,-10,-2,0,0,2
68038191635,-3,-3,18,2,-4,-2,-2,-2
68038191635,-5,2,-9,3,-4,-4,-5,0
68038207255,-2,-5,-6,-1,-1,-2,0,-7
68038207255,-4,3,3,-1,-2,-3,-2,-3
68038214020,4,2,5,3,0,-1,-3,0
68038214020,2,4,18,10,3,4,1,3
68038221623,-4,2,-1,0,-4,0,1,-6
68038221623,-7,-9,-9,-11,-4,-2,-3,-6
68038236570,5,2,-14,-7,0,1,5,6
68038236570,6,-4,-1,-4,-1,-1,-3,3
68038243916,-19,1,6,7,-2,-2,-5,-9
68038243916,5,0,-4,3,4,3,3,6
68038252920,3,-4,-16,-5,-2,-2,0,10
68038252920,4,-2,5,3,0,-2,-4,-19
68038267084,-3,4,-5,-10,-5,-4,-1,3
68038267084,4,-1,3,2,-3,-2,0,-3
68038273884,-3,-2,0,-2,-1,0,1,-2
68038273884,-1,0,-5,1,-2,-3,-3,4
68038281470,3,-1,-1,-11,-1,0,0,-2
68038281470,-4,-2,16,21,2,-1,-2,-1
68038296513,7,-2,1,-5,-2,0,1,-1
68038296513,-9,-5,0,-4,-5,-3,-2,2
68038304079,-7,-4,-5,1,-1,0,1,-5
68038304079,-3,-3,9,3,3,2,0,1
68038312959,3,4,-7,-6,2,0,-1,3
68038312959,-1,-7,-9,0,-1,-2,-2,2
68038327162,-5,-1,13,10,1,-1,0,3
68038327162,-2,-4,-38,-29,-8,-4,-1,-16
68038333865,-4,1,-14,1,1,1,0,-3
68038333865,2,-2,3,7,2,-1,-2,4
68038341465,0,-3,-19,-17,-4,-1,0,-2
68038341465,6,2,8,8,-2,-3,-3,0
68038356544,-17,-7,1,0,0,-1,2,7
68038356544,-12,1,5,-2,0,0,-3,-19
68038364041,12,2,10,10,-1,-2,1,3
68038364041,1,1,3,-3,-1,-4,-4,-1
68038372913,0,-4,-4,7,0,-1,-3,-1
68038372913,2,5,-2,-5,2,4,1,2
68038387265,-4,-7,8,3,-2,0,-2,-2
68038387265,-2,4,11,5,-2,-2,-1,1
68038394012,-1,-1,-12,-3,-1,-1,-2,-7
68038394012,-7,-2,-2,-5,-3,-2,-1,0
68038401439,1,-1,-4,-4,2,0,-3,-5
68038401439,6,3,18,10,0,1,1,7
68038416476,-1,0,3,1,0,0,2,-6
68038416476,-2,-6,-5,-2,1,1,3,8
68038424067,1,-1,-10,-2,-1,-3,-4,-5
68038424067,-6,1,5,0,1,1,0,-3
68038432918,4,4,2,1,1,1,-1,-4
68038432918,0,2,-4,-7,-2,-4,-3,3
68038447320,2,2,-5,-6,0,0,2,0
68038447320,-9,-8,1,8,0,1,-1,-1
68038453909,-1,-1,6,-4,1,1,0,-3
68038453909,-1,-1,-19,-9,-4,-4,-4,0
68038461354,-3,0,2,1,-1,0,-3,-1
68038461354,0,1,-2,-5,-1,-1,1,-1
68038476403,-2,-4,-5,-5,-5,-5,-4,-2
68038476403,4,-2,-2,1,2,1,-3,-2
68038484146,-1,4,4,0,-1,1,6,-1
68038484146,-1,0,-12,-5,0,1,-1,3
68038492995,3,0,6,2,-1,-3,-3,-2
68038492995,-3,2,5,4,-1,0,1,0
68038507309,-1,1,-4,-2,-4,-3,-4,-1
68038507309,1,1,-2,-3,-5,-1,-1,0
68038514120,-4,-4,-8,-6,1,-4,-2,0
68038514120,3,1,5,2,-2,0,-3,-2
68038529839,-2,-4,0,7,10,1,0,0
68038529839,-1,1,8,10,-2,-2,0,-3
68038536622,-1,-3,-1,-8,-6,0,-2,0
68038536622,-4,-3,-2,-2,4,1,-1,0
68038552802,5,-1,-3,-6,-3,1,1,2
68038552802,-2,1,3,1,-1,-3,-1,-1
68038554405,-2,0,-3,0,-2,-1,1,-2
68038554405,1,0,4,-1,0,-3,-2,-1
68038566440,-2,5,-2,1,-1,1,0,0
68038566440,-3,-11,-20,-11,-3,-4,-4,-3
68038575338,-2,3,2,-5,-3,0,-1,-1
68038575338,-2,-4,-6,3,-1,-1,3,1
68038589551,-1,-3,-6,-1,-1,-2,-1,-2
68038589551,-1,1,4,-2,-1,0,1,2
68038596596,-1,-5,-2,1,0,-1,-6,-3
68038596596,0,1,3,2,0,0,-1,-7
68038613043,-6,-3,-1,-2,-2,-1,1,5
68038613043,2,0,-2,-4,-1,-1,-1,2
68038614408,-2,-2,-1,0,-3,-1,1,-2
68038614408,0,0,8,5,-3,-2,-4,5
68038626629,2,-3,-11,-9,0,0,-3,-5
68038626629,2,4,0,-8,0,1,4,2
68038635465,-1,0,-1,7,0,-1,-1,3
68038635465,-2,-1,0,-2,-3,0,0,1
68038649620,-4,-3,-1,-2,0,-2,-9,-29
68038649620,2,-1,5,2,1,1,9,20
68038656383,1,1,-7,-8,1,1,2,-2
68038656383,-4,-5,-5,-3,-1,0,-1,-5
68038672976,-2,-5,-2,0,-3,-2,-1,-1
68038672976,-1,0,-1,-2,-2,-3,-8,-9
68038674368,-1,-1,1,0,-1,-2,2,-2
68038674368,1,0,0,0,-1,-2,-1,4
68038686630,-1,0,-1,-3,-2,-1,-2,6
68038686630,-3,-1,4,2,-1,-1,-2,-4
68038695384,-2,-1,-5,1,-1,1,0,2
68038695384,-1,-1,0,-2,0,-3,0,-3
68038709689,1,0,3,-1,-2,-1,1,2
68038709689,-2,0,-3,-1,0,0,-1,-6
68038716582,-1,0,0,1,0,-1,-4,-5
68038716582,0,-2,0,-3,-1,0,-1,-2
68038732663,-1,0,0,0,0,0,1,4
68038732663,-2,-3,-2,0,-1,-2,-4,-5
68038738945,-2,-2,0,1,-2,-3,-2,-1
68038738945,0,-2,-7,-12,-4,-2,-1,1
68038746623,0,-1,2,0,-2,-3,0,4
68038746623,-2,-1,-4,-1,0,1,-1,-3
68038755438,0,-2,2,0,0,0,-1,-2
68038755438,1,-1,1,0,-2,-1,1,0
68038769868,-1,0,-1,-2,-2,1,-1,-1
68038769868,-1,-1,-1,-1,-1,-1,-2,-3
68038776473,1,-1,1,0,0,0,-2,-1
68038776473,-1,1,-1,1,-1,-1,0,1
68038792902,0,-1,-2,-2,-2,-2,-3,1
68038792902,-1,-2,0,-1,-4,-3,-3,-1
68038794367,-2,-1,0,-2,2,2,2,0
68038794367,0,-1,-2,0,1,2,0,0
68038806597,0,-2,0,0,-2,-2,-1,-1
68038806597,0,-1,-2,0,-1,-1,0,-2
68038815418,1,0,-3,-3,-5,-3,-3,-2
68038815418,-2,-1,0,0,0,-3,-2,-2
68038829744,-3,0,1,-2,-1,-1,1,0
68038829744,-2,-2,-1,-2,-1,-2,-2,0
68038836528,-2,-1,-1,-2,-2,-1,0,-2
68038836528,0,-1,1,0,0,0,0,-1
68038852985,-2,0,-2,1,0,-2,-1,0
68038852985,0,0,-2,-1,-2,1,-1,0
68038854308,-1,-1,-1,-1,-1,0,-1,-1
68038854308,-1,-2,-2,-1,-4,-2,-2,-1
68038866616,-1,-1,1,-2,-1,-2,-3,-2
68038866616,-1,-1,-2,2,8,7,5,1
68038875379,-1,-2,0,0,-1,-3,-3,0
68038875379,0,-1,-1,-1,-2,-2,0,-2
68038889808,0,-1,0,0,-2,1,-1,1
68038889808,-2,-1,1,-2,-3,-5,-3,-3
68038896624,-2,0,-1,0,0,-2,1,-1
68038896624,-2,0,-1,-1,0,-2,-2,-1
68038912981,0,0,-2,-1,-3,-3,-1,-2
68038912981,-2,-1,-3,-2,-1,-1,-2,-1
68038914383,0,0,-2,-1,-1,1,-2,-2
68038914383,-2,-1,0,0,-1,-1,-2,-1
68038926541,1,-3,-3,-1,2,0,2,-2
68038926541,0,-1,-2,0,-3,-1,-2,0
68038935411,0,-1,0,-2,-3,-1,-1,-1
68038935411,-1,-1,0,0,-2,1,-1,0
68038949935,-2,-1,1,-2,0,1,-1,1
68038949935,-2,-1,0,-1,0,-1,-1,-1
68038956453,-1,-1,-1,0,-1,-3,-2,0
68038956453,-2,0,-2,-1,-1,0,1,0
68038972886,0,-1,-2,0,-2,-1,-1,-1
68038972886,0,-1,0,-2,-1,-2,-1,-2
68038974420,-2,-1,-1,-1,-1,-2,-1,1
68038974420,0,0,-1,-2,2,-1,-1,-1
68038986690,1,-2,-1,-2,-1,-3,-1,1
68038986690,-2,0,-1,-2,-3,-1,-3,-1
68038995449,-2,-3,0,-1,0,1,1,-1
68038995449,0,0,-1,0,-2,-1,-1,0
68039009796,-2,0,-1,-1,-2,-2,-2,-3
68039009796,-1,-1,0,0,-1,-2,-1,-1
68039016539,1,-1,-1,0,-2,-3,0,-2
68039016539,-1,-2,-2,-2,1,0,0,0
