timestamp,emg1,emg2,emg3,emg4,emg5,emg6,emg7,emg8
51464533077,-13,-12,-6,1,48,11,-5,-12
51464533077,7,6,4,-6,-58,-11,-1,0
51464533946,3,-2,-6,-6,29,-3,-2,-1
51464533946,9,2,-1,-8,-48,-6,-1,6
51464537480,-21,-2,0,9,19,-9,3,-10
51464537480,-15,-8,-2,2,33,-2,-10,-1
51464539066,-3,1,-3,-10,-6,-7,18,2
51464539066,-3,-4,-3,-5,-30,-11,-18,-13
51464543891,1,2,1,4,34,4,-4,3
51464543891,8,-2,-2,-1,-40,-4,6,0
51464559982,7,4,2,27,3,-4,-9,3
51464559982,-10,-6,-6,-20,26,-1,-3,-5
51464566429,11,7,1,-17,-23,-6,6,7
51464566429,-7,-4,1,4,9,2,-7,-2
51464590194,3,-1,2,13,5,4,-3,1
51464590194,-3,-1,2,16,39,4,7,-3
51464603802,-6,-7,-8,-14,1,-8,-11,-4
51464603802,12,5,2,-4,-33,-7,5,8
51464621331,-25,-6,-5,-18,-9,7,-1,-10
51464621331,-7,-3,-2,-9,-2,12,7,-3
51464621914,6,4,4,14,-9,-10,-16,5
51464621914,-3,0,-12,-20,87,26,14,-1
51464624533,13,3,15,35,-56,-17,-12,-2
51464624533,-2,-6,-17,-62,3,7,4,3
51464627091,-1,-1,12,40,-23,-10,-5,1
51464627091,-1,1,3,1,15,6,1,-6
51464633956,-10,-7,-5,8,54,12,-9,-3
51464633956,-4,5,1,-3,-60,-26,-7,-4
51464648617,3,-7,-9,-9,-10,20,13,-2
51464648617,-3,2,-6,-13,-19,-17,-11,-1
51464663685,7,-2,7,15,3,9,17,15
51464663685,3,2,-5,-8,19,-1,-13,-14
51464672248,0,-9,-12,-38,-47,-30,-1,-5
51464672248,-9,-4,11,39,-11,8,3,-2
51464704490,2,4,4,3,9,-4,0,2
51464704490,-2,3,4,10,0,5,0,-3
51464705372,3,-2,-13,-27,-3,-4,-1,2
51464705372,-2,0,4,14,-14,-2,-2,-2
51464706030,8,5,6,-4,0,-3,0,4
51464706030,-8,-4,-6,-4,5,3,4,2
51464709241,-15,-2,-9,-8,-2,1,3,-5
51464709241,6,1,1,-27,-7,-5,-13,-4
51464716218,3,3,-2,7,-18,-10,15,2
51464716218,17,3,17,34,-23,-4,-7,0
51464723537,-8,-6,-19,-28,20,16,-2,-3
51464723537,1,-9,-18,-17,-23,-6,-4,-3
51464738676,-15,-2,12,15,7,11,-5,0
51464738676,4,4,-6,-16,-5,-17,-3,-5
51464746338,12,9,10,20,17,-1,0,-1
51464746338,-6,-12,-9,0,-22,-17,-11,-6
51464761102,2,-4,-5,0,21,4,5,6
51464761102,11,10,3,-8,11,8,-2,1
51464768633,-16,-14,6,21,26,1,-8,-5
51464768633,9,7,0,-3,-12,1,-21,1
51464783568,-6,10,3,-19,-6,9,40,1
51464783568,-10,-8,-12,-11,-5,3,39,11
51464792562,12,-11,-7,-31,16,-1,-9,-16
51464792562,0,4,15,58,5,13,18,4
51464794107,-3,-10,-11,-16,-13,-14,-30,-10
51464794107,10,8,-3,-11,12,3,-11,6
51464806234,-8,8,20,36,3,0,6,1
51464806234,-6,-6,-8,-34,-5,3,-1,-1
51464821093,-2,-1,-4,32,6,-11,-13,-4
51464821093,-3,-5,-2,4,-4,2,3,0
51464828750,7,6,0,-2,-31,-13,-4,8
51464828750,5,-1,1,27,33,10,14,-3
51464843569,4,-7,-19,-41,-9,-5,-19,-4
51464843569,-19,-13,-4,5,-21,-4,-7,-10
51464851145,-1,-3,-10,-45,-35,-7,1,5
51464851145,-2,9,14,31,38,4,2,2
51464875528,2,-1,0,-4,-5,-6,1,-5
51464875528,0,-3,-2,21,53,32,-3,-1
51464876306,5,6,11,21,-5,-18,-26,-2
51464876306,-2,0,-7,-11,13,20,21,1
51464877949,-4,-5,-8,-12,21,20,26,3
51464877949,-17,-1,12,-17,-108,-37,-6,-5
51464881132,-5,1,-5,11,-1,12,1,3
51464881132,-1,-1,0,-14,11,-3,-1,2
51464896093,-14,-8,-1,24,-9,-3,-11,-4
51464896093,4,1,-10,-11,8,3,-9,-5
51464903681,-1,3,11,11,-9,1,13,-1
51464903681,-6,-1,1,-7,-6,-14,-6,1
51464918661,8,2,0,8,19,23,1,1
51464918661,1,-1,-4,1,20,-5,-7,-1
51464926237,5,0,-2,1,-5,0,3,3
51464926237,0,0,-5,-8,-10,-3,-1,0
51464940984,-5,-7,1,0,10,-11,-11,-5
51464940984,11,2,0,-17,-3,-7,-10,-4
51464948684,-3,0,-4,24,21,0,5,-2
51464948684,4,-6,1,-16,-26,-7,3,1
51464964906,11,9,-8,-12,-27,-11,-43,-11
51464964906,-20,-9,-6,7,0,6,39,-4
51464965679,5,-8,2,-18,0,6,-16,-1
51464965679,-6,-1,-4,5,39,22,40,5
51464978751,-1,-4,6,13,-20,-12,-25,2
51464978751,19,8,1,-2,30,11,4,7
51464986222,-10,1,-3,-5,-40,-8,13,-6
51464986222,-3,-3,-2,-8,-29,4,-7,2
51465001325,-9,-3,0,-4,8,-1,9,-7
51465001325,-3,-2,-1,30,67,9,-12,-3
51465008517,-6,-8,-8,-20,6,-4,6,3
51465008517,2,0,-2,-8,-41,-11,-11,-3
51465031032,1,3,9,11,-5,-1,15,5
51465031032,0,-4,-3,-10,-21,-30,-18,-4
51465038622,12,10,8,6,15,12,-3,-1
51465038622,-4,0,-5,2,23,-13,-6,-4
51465048885,1,2,4,12,14,18,4,0
51465048885,-5,-2,-4,-22,-12,5,-1,2
51465049862,5,-2,-5,-4,6,-5,2,2
51465049862,-6,-2,-2,9,-10,-5,-8,-5
51465053563,14,7,5,-24,-9,15,12,6
51465053563,-18,-2,-5,-13,-15,-14,-7,-4
51465061129,1,-15,-15,-20,12,0,-7,-2
51465061129,10,0,10,21,4,-13,-8,-3
51465076141,-1,-3,4,25,23,18,2,4
51465076141,7,2,-5,-38,-17,-8,-9,-3
51465091111,0,5,5,18,8,9,18,14
51465091111,-12,-3,-5,-5,11,-8,-16,-19
51465098694,1,-3,-6,-10,14,-11,1,-5
51465098694,-8,-6,-3,1,-72,-12,-34,-2
51465113526,0,2,1,10,16,25,50,5
51465113526,2,2,0,-8,0,3,-1,5
51465121037,-10,-6,-9,-1,-31,-11,4,1
51465121037,1,1,1,3,6,4,-11,-1
51465138133,-7,-7,-6,-35,-5,9,-18,-8
51465138133,0,4,-4,3,-7,-15,2,0
51465138949,-17,-9,2,1,-2,6,-7,-6
51465138949,0,-4,7,23,9,-4,9,1
51465158492,7,6,3,11,6,-6,-6,2
51465158492,-5,-5,-4,-3,6,4,1,-3
51465173647,-1,1,-3,-8,-14,-6,-2,2
51465173647,6,0,-8,-18,13,6,5,2
51465188684,-10,1,10,24,-10,-2,-5,-5
51465188684,4,-2,-2,-7,21,4,-6,1
51465196261,4,-1,-2,10,6,-22,1,-2
51465196261,4,-4,1,-8,16,19,3,-1
51465211140,6,4,-5,-13,-18,-1,-1,0
51465211140,-7,-1,10,20,-16,-8,-3,-1
51465220668,-8,-9,-18,-46,-13,-4,-8,-7
51465220668,3,3,16,69,16,4,15,3
51465222271,-7,-3,-2,0,3,-6,-9,9
51465222271,-3,-4,-16,-34,-24,-15,-22,-13
51465223635,1,5,7,19,13,9,14,2
51465223635,8,-1,-2,-3,39,10,0,3
51465227572,-10,-3,-3,-4,-63,-32,-9,-6
51465227572,9,-1,-1,-11,12,26,5,6
51465233639,6,3,2,0,15,-2,-3,2
51465233639,-2,1,-3,-5,-3,-12,-23,-3
51465248594,8,3,6,14,16,23,36,2
51465248594,-16,-11,-13,-19,11,1,7,-1
51465255994,1,-1,3,-10,-15,-7,-2,-2
51465255994,5,2,13,46,14,10,8,2
51465271104,-20,-5,-4,12,7,-15,-29,-17
51465271104,-2,-1,-9,-32,4,2,1,2
51465286093,2,-5,-1,6,6,7,5,0
51465286093,-7,0,-1,-5,-8,-13,8,3
51465301148,-4,-8,-9,-10,4,2,-21,-6
51465301148,4,3,7,29,0,14,11,-1
51465309906,-6,2,-6,-30,-9,-6,-11,-1
51465309906,-10,-6,-4,2,11,1,11,-3
51465311487,-3,-6,-5,-7,5,-2,-12,-5
51465311487,-5,5,2,-5,32,-2,-5,-2
51465323811,13,-2,-1,-1,2,-10,0,2
51465323811,0,2,1,4,-8,-8,-21,-2
51465338693,3,0,0,-10,-1,19,23,1
51465338693,3,-1,-1,3,-20,-8,-4,1
51465346001,-1,2,1,11,2,-2,2,-2
51465346001,-14,-7,-3,-21,-23,5,1,-3
51465361167,4,2,0,5,1,-9,-2,9
51465361167,6,4,7,19,-1,-5,-9,-12
51465368727,-12,0,3,20,0,8,4,2
51465368727,6,-3,-16,-62,-9,-5,8,3
51465384930,5,-1,12,27,11,-7,-5,-1
51465384930,-4,-4,-15,-42,4,3,7,4
51465393295,-2,-3,12,25,-42,-14,-5,0
51465393295,2,4,4,17,26,14,-3,-4
51465394958,-4,-2,-4,-11,-25,-8,0,-2
51465394958,8,-2,0,10,14,6,-4,5
51465395574,-1,2,-4,-19,0,-11,-1,-3
51465395574,-2,-4,-6,8,8,2,-9,-1
51465413475,0,1,1,-8,-10,-17,22,2
51465413475,-5,-4,6,12,2,6,-5,-8
51465428792,-1,-4,-7,-3,-5,2,-2,0
51465428792,11,7,-20,-60,-23,-8,8,-2
51465443608,2,0,21,50,0,-5,-17,-2
51465443608,8,7,7,12,-15,-1,1,4
51465451047,-19,-10,-8,-6,-3,3,-1,-5
51465451047,-1,-4,-3,-3,1,-6,-5,-1
51465466144,-4,-2,-5,-6,-7,-2,-11,-4
51465466144,9,8,14,21,13,0,14,9
51465473645,2,1,-7,-7,-4,-3,-4,-2
51465473645,4,4,11,12,8,13,4,-1
51465483903,-2,-3,-18,-30,-24,-24,-3,1
51465483903,14,2,1,19,-4,10,6,8
51465484626,-2,-2,-8,-32,9,-8,-4,-1
51465484626,-7,-4,4,-1,-12,-9,3,-3
51465488508,-2,1,6,38,7,2,-2,-3
51465488508,0,-3,-8,-21,-36,-10,-12,-1
51465496034,7,2,2,7,14,4,11,7
51465496034,-8,-4,-2,-7,-9,-1,5,-2
51465511112,5,1,0,4,12,-2,-7,7
51465511112,-17,-6,-5,-4,7,9,-2,-17
51465518702,0,-1,1,12,-4,-11,-3,0
51465518702,-2,0,1,2,-13,4,3,-2
51465541261,-3,-4,-9,-12,42,11,-2,-1
51465541261,-3,-3,-1,-6,-44,-18,-1,4
51465548699,6,1,2,-6,16,7,-1,0
51465548699,-11,-4,2,8,-13,-15,-5,-7
51465566264,0,-1,-11,-21,22,13,-1,-2
51465566264,-20,-9,-9,-21,3,5,-2,-3
51465567015,5,1,3,13,-3,7,-2,-1
51465567015,3,-8,-3,14,16,-5,0,0
51465568593,0,8,-1,-6,-26,-10,-14,-2
51465568593,0,-1,8,16,25,-12,10,1
51465578497,9,-2,3,17,36,37,-1,-1
51465578497,-6,-2,-11,-37,-31,-13,1,-1
51465600998,0,0,-5,-12,-14,-4,3,0
51465600998,0,-2,0,12,-20,-12,-10,0
51465608741,-6,1,3,-9,-22,-6,-2,-1
51465608741,12,3,5,33,62,4,7,3
51465623509,12,-2,-5,-26,-47,-2,-7,-3
51465623509,-8,-7,-4,12,3,-1,-5,-2
51465631146,-1,6,1,-16,-6,-11,5,-3
51465631146,-5,-1,-3,3,-6,7,-3,-2
51465646151,-2,0,2,7,13,3,2,-1
51465646151,3,-1,-4,-19,-5,-7,2,-1
51465655535,10,2,4,7,-9,-5,-2,3
51465655535,-21,-4,-5,-8,-5,-3,-3,-5
51465657093,-2,0,0,-2,-16,-12,-7,-2
51465657093,-3,-1,-3,8,21,24,16,-1
51465658097,4,3,7,15,20,-6,-10,5
51465658097,0,-3,-8,-14,-7,2,-1,1
51465668617,-1,-4,2,13,7,10,5,-4
51465668617,-11,-1,-3,-4,4,-4,-5,0
51465676078,-5,-1,-14,-14,-16,-4,0,-3
51465676078,12,-1,10,22,2,-6,-18,-1
51465691124,-1,-1,-8,-35,5,21,45,6
51465691124,18,3,9,12,-3,-1,-7,-2
51465706187,-7,-6,-8,-2,-18,5,4,-3
51465706187,-7,-1,8,7,-5,0,-1,-1
51465721124,1,-1,-5,5,31,-4,-15,-2
51465721124,13,4,1,-8,-6,-3,-2,5
51465728463,-16,-6,-4,-1,-9,8,7,-5
51465728463,2,3,-4,-18,-48,-25,-5,2
51465738128,-6,-1,7,16,-20,0,-8,-5
51465738128,-8,-2,-3,-2,22,3,5,-5
51465738945,-2,-1,-10,-24,-3,-3,-6,-1
51465738945,1,1,7,44,-1,-8,4,2
51465751384,3,-2,-2,5,26,4,-8,2
51465751384,-12,-2,-4,-16,-17,-4,3,2
51465758420,1,-6,-2,17,34,6,1,-5
51465758420,-2,-2,-10,-31,-19,5,2,-2
51465780950,2,-1,8,14,-10,9,5,0
51465780950,-1,2,3,-2,14,2,-4,0
51465788495,-3,-2,-3,-7,13,-8,-3,1
51465788495,7,0,-1,3,-14,8,7,1
51465803437,12,3,-2,-3,1,-4,-11,-1
51465803437,-13,-7,-7,-32,-23,-3,-4,-4
51465810948,-1,4,16,52,6,2,3,-1
51465810948,-1,-3,-7,-19,13,-1,-6,-2
51465827278,9,2,-1,-3,13,8,-3,3
51465827278,0,-3,-3,0,-16,-13,-4,-2
51465828060,4,4,5,0,20,-4,-3,3
51465828060,6,0,6,23,-5,7,1,-5
51465840990,-14,-6,-7,-9,20,-2,-2,-5
51465840990,4,2,2,-3,-39,-9,-3,0
51465848450,1,-2,-13,-17,-20,-2,0,-3
51465848450,-9,-3,-1,6,37,-4,-6,-1
51465863421,-1,-1,2,-2,-39,-20,-27,4
51465863421,-4,-2,-3,3,16,22,45,-6
51465878494,1,1,9,18,-11,-6,-2,3
51465878494,3,-4,-8,-18,-5,-2,0,0
51465893404,-6,0,-4,-13,-3,8,5,1
51465893404,4,2,4,14,19,-4,-16,-1
51465900954,-4,-6,-6,-15,-26,-9,-8,-7
51465900954,-3,1,1,7,42,2,8,5
51465911963,-11,-4,-3,-4,-32,6,4,-10
51465911963,7,0,-3,20,16,-1,-5,2
51465913044,-6,-7,-6,-26,12,-4,3,-6
51465913044,3,10,6,-15,-21,-4,-7,1
51465916725,-1,-8,1,15,9,-9,2,-2
51465916725,-5,-4,-1,-6,16,2,-9,-4
51465917455,0,-6,-10,-12,-40,-7,-4,3
51465917455,-3,-1,1,-14,8,2,-1,-7
51465946024,-1,0,1,-4,-6,-11,0,-1
51465946024,1,-2,-3,6,14,8,0,6
51465953428,2,-2,-6,2,14,10,-3,-2
51465953428,12,5,5,10,-5,5,2,4
51465968522,4,3,2,5,4,-4,1,-3
51465968522,-11,-3,-6,-13,-16,-14,-13,-2
51465983671,-9,-2,1,6,7,-2,3,-2
51465983671,0,-1,-1,9,-18,2,0,0
51466001336,-4,-11,-14,-6,19,-10,-10,-2
51466001336,14,6,8,10,7,10,2,-2
51466002331,-4,7,7,-8,-30,-9,14,3
51466002331,1,-1,2,17,4,6,-1,-1
51466003639,10,7,-2,-11,-7,0,1,2
51466003639,-5,-5,-6,-13,-16,-4,-3,-1
51466006714,2,1,1,6,-20,-4,-3,-1
51466006714,-8,-8,-9,-25,-9,-9,-5,-4
51466013468,-9,-4,-3,3,-3,-1,2,-2
51466013468,-4,-2,3,18,2,3,-4,-3
51466021073,1,-4,-4,-12,5,10,1,-1
51466021073,-2,-6,-7,-1,10,-11,-5,-1
51466035966,1,2,0,-3,-13,-7,0,0
51466035966,5,-1,-3,-13,-6,-6,-4,-2
51466050951,-2,0,9,36,-10,-3,-3,-2
51466050951,-4,-3,-9,-37,17,12,3,2
51466073590,-6,0,6,18,23,8,2,0
51466073590,3,3,5,-9,-33,-20,-3,5
51466083828,14,4,7,6,24,20,-4,-2
51466083828,1,-3,-1,20,3,-2,1,-2
51466085410,-5,-2,-3,-12,-13,0,1,-1
51466085410,0,-3,-4,-1,8,-10,-4,-1
51466086080,0,2,1,-1,3,-6,-7,1
51466086080,-6,-2,-2,-2,-7,0,0,-2
51466089985,3,-1,-6,-20,-1,-10,-1,-3
51466089985,-3,2,4,14,-3,10,8,2
51466096001,4,-2,-8,-13,-10,-5,-8,-1
51466096001,2,1,1,-2,-8,-5,0,0
51466111201,-9,-3,2,11,18,4,-3,-2
51466111201,-3,0,-2,-5,-20,-13,-4,-4
51466118533,-1,-2,-1,-5,20,1,-4,0
51466118533,-4,-1,0,17,-5,-2,-12,-5
51466133582,-4,-4,-1,-14,-8,13,41,2
51466133582,4,-1,-4,-1,9,10,-1,2
51466141025,-5,0,2,-4,-9,2,6,-3
51466141025,2,-1,0,4,8,0,-5,2
51466163566,2,-5,-3,2,0,-2,-10,1
51466163566,11,6,4,1,8,0,-5,-2
51466172518,-4,-3,-9,-23,-13,-15,-6,-2
51466172518,-4,2,2,1,-30,0,5,0
51466173949,0,-1,-5,-3,5,-7,-10,-6
51466173949,-10,-5,1,11,1,2,2,-1
51466178594,-3,-1,-5,-8,2,-10,-8,-2
51466178594,4,-1,-3,-10,9,6,5,-3
51466193629,5,0,3,9,0,-5,-3,2
51466193629,-7,-2,-7,-6,-4,-6,-4,0
51466201096,-3,0,-5,-16,3,5,3,-2
51466201096,-5,-5,7,27,10,3,0,-4
51466216017,0,-1,-5,-22,-34,-8,-6,0
51466216017,5,1,-1,5,5,-3,-7,-1
51466223479,-13,-9,-9,-19,-25,0,7,-3
51466223479,3,1,-11,-18,-2,-8,0,2
51466238615,-1,1,17,56,31,9,-5,-2
51466238615,4,2,0,-1,7,-1,-1,2
51466246167,2,-1,-3,3,7,3,1,1
51466246167,7,0,5,10,-3,-10,-3,-3
51466255649,-5,3,-3,-31,6,-10,2,4
51466255649,2,-5,-4,16,21,5,-1,-4
51466256612,0,3,3,3,-2,-1,1,1
51466256612,-3,-2,-1,-4,-8,9,1,0
51466268483,-1,-5,-2,6,9,0,-7,-4
51466268483,-4,0,-2,-15,-12,-7,3,1
51466275969,-4,-4,-4,12,12,4,-3,-5
51466275969,1,4,7,10,11,1,1,-1
51466291063,-3,-3,-2,-4,-9,1,-4,-3
51466291063,7,0,-1,-17,4,4,4,1
51466298703,0,1,-7,-13,-7,0,-1,-2
51466298703,-3,-5,-3,-8,-9,-2,0,0
51466313498,-2,0,-3,25,15,9,1,0
51466313498,-3,-1,-2,-9,1,0,-13,-3
51466321104,7,-1,6,11,5,-5,12,-3
51466321104,-2,2,-3,3,16,9,3,0
51466336008,7,1,-6,-30,-50,-7,-6,-1
51466336008,-1,2,8,22,27,5,0,0
51466344268,-2,-1,0,-8,-23,-4,0,2
51466344268,-6,-6,-7,2,7,0,-6,-1
51466351131,0,0,2,-4,-21,-6,-4,-4
51466351131,-9,-3,-1,0,13,-5,6,1
51466358638,8,3,5,9,18,5,-2,1
51466358638,3,0,-4,-9,-3,-7,1,-1
51466373620,-1,2,-1,-2,13,10,-3,0
51466373620,-7,-2,2,4,-19,-11,-5,-3
51466381054,7,3,5,2,6,3,6,7
51466381054,-15,-8,-6,5,19,-1,-5,-5
51466396166,0,0,-4,-13,1,1,4,-4
51466396166,-12,-8,-4,-14,-19,-4,-10,-7
51466403665,13,2,2,18,24,-3,-3,1
51466403665,-1,-1,4,-9,-4,1,-2,-1
51466418572,3,0,-6,-16,9,2,1,-2
51466418572,0,1,1,9,-21,1,3,0
51466435048,-2,-1,-1,0,-10,-5,-4,2
51466435048,0,1,-4,5,-8,-4,-7,-2
51466436582,-9,-7,4,4,30,-1,-2,-4
51466436582,4,1,-4,-17,-52,-18,-6,-1
51466441090,-8,-3,-3,-2,17,21,13,0
51466441090,0,-1,1,-4,12,8,5,2
51466456065,-2,2,7,15,-16,-16,-6,0
51466456065,-2,0,-7,-5,19,18,6,-2
51466463570,-8,-4,-2,-12,-7,-6,-7,-4
51466463570,0,-2,-3,-6,-19,-6,-1,-2
51466478638,-1,0,-4,1,8,-5,-2,-1
51466478638,5,-1,-2,-10,0,-3,-2,1
51466486002,-13,-8,-6,5,1,-3,-3,-5
51466486002,1,-1,-4,-18,-62,-14,-2,-1
51466501006,-4,-4,-5,1,8,0,-3,-2
51466501006,3,-2,0,1,-1,-9,1,0
51466508432,-8,0,4,10,3,0,-9,-3
51466508432,-1,0,0,4,3,2,2,-1
51466518137,-1,-1,-2,-3,-3,-5,2,3
51466518137,-1,-4,-6,-7,1,4,-2,-3
51466518953,3,2,1,-4,-15,-7,0,4
51466518953,-8,-1,1,14,-14,-3,-5,-8
51466531155,-4,-4,-1,-4,-17,-5,-4,-4
51466531155,-3,2,1,7,30,9,4,-2
51466538522,-1,-4,-6,-11,-6,-2,-5,-1
51466538522,2,0,0,11,3,0,-1,1
51466553666,1,1,-1,-14,-18,-2,8,4
51466553666,-8,-3,0,-4,8,3,0,-4
51466561006,-2,-2,-5,-10,-25,-12,-2,-3
51466561006,0,1,2,18,-3,-7,-1,0
51466576025,0,0,-2,-10,-1,3,-4,-3
51466576025,2,-3,-4,-4,-4,0,-3,0
51466583685,0,1,1,-4,10,-1,0,-1
51466583685,1,-5,-4,-2,8,4,1,-1
51466599128,0,-3,-2,1,-46,-10,-1,-1
51466599128,-2,-1,1,2,15,8,3,3
51466606879,-2,-2,2,3,4,-6,-5,-5
51466606879,1,3,3,-11,-2,-6,-3,-1
51466613407,-2,-3,-2,5,15,8,-1,-1
51466613407,-2,0,-5,-7,-9,1,-1,0
51466620969,3,0,5,4,-18,-11,-1,-1
51466620969,0,0,-2,-1,3,-2,1,0
51466637473,5,0,0,17,8,-2,1,0
51466637473,-11,-1,-8,-26,-17,-12,-6,-7
51466643541,-4,-3,-7,-14,-27,-15,-7,-2
51466643541,-1,-2,-2,4,26,6,4,0
51466658558,8,2,7,11,16,3,2,5
51466658558,-6,-4,-3,-4,-13,-5,-1,-1
51466665968,2,1,-3,1,20,6,2,1
51466665968,-4,-4,1,-3,2,0,-1,-1
51466680950,0,-2,-4,5,5,3,-9,-2
51466680950,8,2,2,-10,12,8,13,3
51466689170,6,3,-3,-13,-4,-4,5,0
51466689170,0,-7,-2,2,5,1,0,1
51466696722,3,2,1,1,16,9,-3,-4
51466696722,-3,-4,-4,5,-29,-8,-4,-3
51466697390,-3,-1,-4,-11,7,9,-3,-1
51466697390,11,8,1,-14,1,7,10,7
51466718609,-8,-3,3,12,-12,4,0,-3
51466718609,-1,-2,-5,-12,14,-14,-3,-1
51466725997,-4,-4,0,8,-3,4,-3,0
51466725997,-4,3,2,6,13,-2,-2,1
51466740964,-6,-3,1,-11,-3,0,-5,-5
51466740964,3,2,2,15,20,9,1,0
51466748497,3,0,2,13,5,1,0,0
51466748497,-8,-3,-8,-18,-16,-5,6,-2
51466763450,-1,0,-2,-7,13,-7,-8,0
51466763450,-3,-2,1,-1,-4,7,-1,-2
51466772147,3,-1,5,13,8,1,-1,0
51466772147,0,-1,-9,-10,8,8,1,-1
51466779130,-11,-4,-3,-5,-20,-9,0,-5
51466779130,3,1,6,8,-3,-7,-6,-2
51466779927,-6,-3,-6,-3,-3,-1,-6,-2
51466779927,-2,1,4,2,3,10,3,-4
51466793450,2,-4,-10,-12,6,3,3,2
51466793450,-16,-5,7,17,-4,-4,-4,-4
51466800939,-2,1,2,9,-5,1,1,0
51466800939,-2,-5,-1,-2,-10,-11,-8,-1
51466823404,2,0,-7,1,1,-3,-1,1
51466823404,2,-3,-4,-27,-18,-3,1,3
51466830936,-3,-3,-5,1,30,13,2,0
51466830936,-3,-1,0,-5,-17,-16,-7,-4
51466845925,2,2,1,3,0,-1,4,3
51466845925,-2,-1,-1,12,16,17,-2,-1
51466853386,-4,3,1,4,-19,-13,2,-2
51466853386,2,-1,-4,-3,-6,-3,-5,0
51466863789,-8,-7,0,10,5,-3,0,-3
51466863789,4,1,-3,-2,1,5,4,2
51466864579,-4,-6,-6,-14,6,-2,-3,-4
51466864579,-2,3,0,-9,-17,1,-1,1
51466875879,8,3,9,14,7,0,0,4
51466875879,-9,-3,-5,-19,-12,-7,-3,-5
51466883458,-2,-1,0,17,-13,-6,-2,-1
51466883458,-1,-7,3,8,32,4,-1,-2
51466898392,-2,1,-3,-15,-12,8,2,-1
51466898392,4,-3,-4,-8,-40,-11,-4,-2
51466905915,-11,-4,0,2,22,4,-3,-3
51466905915,2,3,0,2,-39,-14,7,1
51466928434,-2,-1,3,9,27,-2,-6,-2
51466928434,-4,-2,-3,10,18,22,-1,-4
51466935914,1,2,1,-16,-26,-8,-1,1
51466935914,1,-1,0,6,14,6,-3,-1
51466946261,-4,-1,1,-6,-10,-2,4,0
51466946261,4,4,-1,-11,-9,-7,1,5
51466947102,0,-5,-3,3,9,3,-4,-1
51466947102,2,-6,-8,-12,11,5,-2,-5
51466950937,-1,-1,11,19,9,0,-3,-5
51466950937,1,1,-3,5,-5,-15,-6,-2
51466958415,-5,-6,-1,-1,-14,-1,5,-2
51466958415,2,1,-4,-16,6,-1,0,1
51466973532,-2,-1,-6,-4,-15,-6,-2,-4
51466973532,-4,-2,1,-7,-5,-9,-4,-3
51466980920,6,4,7,1,20,12,-2,1
51466980920,0,1,-2,-2,8,7,1,2
51466995892,-9,-4,-4,-2,-18,-17,-6,-7
51466995892,-13,-5,0,15,37,5,3,-3
51467003423,5,-1,-12,-35,-55,-11,-8,-1
51467003423,-3,0,6,11,10,-3,-3,-1
51467018391,6,2,1,-5,-2,5,1,-1
51467018391,8,-1,-1,6,11,-2,3,3
51467025957,-1,-2,-5,-7,-3,0,-2,-2
51467025957,-2,-2,-5,10,-25,-22,-4,-2
51467034872,-4,0,-5,-21,-4,4,-1,-1
51467034872,0,0,0,-5,-22,-7,-4,-2
51467041571,-1,-1,-7,-3,22,3,-2,0
51467041571,0,2,10,18,-5,-2,-2,1
51467059069,2,2,3,2,-4,-4,-3,-2
51467059069,0,-1,1,5,4,5,5,0
51467064787,-5,-2,-4,-1,41,0,-12,-3
51467064787,-9,-2,0,-18,-31,-1,17,0
51467078376,-1,-3,-2,12,17,3,5,1
51467078376,3,1,2,11,0,2,-7,0
51467085956,11,7,3,-5,-12,-1,3,4
51467085956,-7,-3,-4,3,22,4,-5,-1
51467100928,-1,-1,-1,-10,24,13,2,0
51467100928,1,2,1,3,-21,-14,-1,-1
51467108431,2,2,6,7,-13,-4,4,1
51467108431,3,-2,-5,-6,-2,5,-6,-3
51467118139,2,3,1,-2,-7,-8,2,3
51467118139,0,-4,-10,-12,11,5,-5,0
51467118898,-5,-5,6,13,-9,-2,5,-8
51467118898,-2,-2,-1,-7,11,6,-2,-2
51467131005,-2,-3,-6,4,-11,-6,-7,-4
51467131005,0,-2,0,3,1,-1,-1,-3
51467138425,1,1,3,8,-4,-1,1,1
51467138425,-9,-5,-4,-6,17,5,2,-2
