timestamp,emg1,emg2,emg3,emg4,emg5,emg6,emg7,emg8
1512715075494577,-2,-6,1,1,2,0,-1,0
1512715075494577,0,5,0,1,-1,0,2,-1
1512715075495575,-1,-4,-2,1,1,2,-1,0
1512715075495575,-1,3,1,-1,1,0,-2,-2
1512715075498579,0,4,-1,-3,-1,-2,-4,1
1512715075498579,-2,-5,1,0,-2,2,0,0
1512715075499577,3,5,2,0,0,0,0,2
1512715075499577,-1,-2,-2,-2,-1,-1,-3,1
1512715075506576,-3,-8,-6,0,-3,0,-2,-3
1512715075506576,-2,0,-2,0,-1,-1,-3,-2
1512715075513577,-4,-2,-4,0,-1,-4,-1,-5
1512715075513577,-1,-7,-1,0,-1,-2,0,1
1512715075531577,2,8,0,0,-2,-1,1,-1
1512715075531577,0,-7,-1,1,-1,0,-1,-1
1512715075535577,0,-4,-2,-3,-4,-2,-1,-1
1512715075535577,-2,0,1,0,1,0,0,-3
1512715075546578,-2,-1,0,-2,-2,1,0,0
1512715075546578,-1,-3,-1,0,4,-4,-3,-2
1512715075558626,-1,1,0,-4,0,2,1,0
1512715075558626,-1,-5,-1,0,-2,-2,0,0
1512715075566577,0,0,-2,-1,-2,-1,-3,-1
1512715075566577,1,7,-1,-2,-2,1,0,2
1512715075613584,0,2,-4,0,0,0,-2,-1
1512715075613584,-2,-4,-2,2,-2,-1,-2,-2
1512715075614585,0,-2,0,-1,-1,-2,-2,-1
1512715075614585,-4,-3,-1,0,-1,1,-1,-2
1512715075614585,-2,-2,1,-1,1,-2,0,0
1512715075614585,-2,-1,0,-3,-2,0,1,0
1512715075617584,-2,-4,-1,-2,-3,-2,-2,-1
1512715075617584,0,6,-3,0,-1,-1,-1,-3
1512715075625586,-1,-1,0,0,-2,2,-1,0
1512715075625586,-2,-2,0,-1,0,-2,-3,0
1512715075632585,0,-2,-3,-1,-2,0,-2,-1
1512715075632585,2,5,0,-1,-1,-1,1,0
1512715075639588,-2,-10,-4,-2,-3,-3,-1,-5
1512715075639588,0,3,-3,-2,-1,0,-1,-1
1512715075655588,-1,-3,2,-2,0,-2,-2,-3
1512715075655588,-3,-1,-1,1,-1,-1,1,0
1512715075663600,2,2,0,-2,0,-2,1,0
1512715075663600,-1,0,-1,-2,-1,-1,0,0
1512715075677592,-2,-1,-2,-1,-1,-1,0,0
1512715075677592,-2,-2,-1,-3,-2,0,0,-1
1512715075685592,-2,3,0,0,-1,-3,-3,-1
1512715075685592,-1,-2,1,0,1,1,-2,-1
1512715075692593,1,6,2,0,1,1,1,1
1512715075692593,-2,-8,-1,-1,1,-2,-2,-2
1512715075700601,-1,-2,-3,-1,-2,0,-1,-2
1512715075700601,0,-10,-6,0,-1,-3,0,-1
1512715075715593,-1,3,0,0,0,-2,-4,-1
1512715075715593,-1,1,-4,-2,0,-2,-2,-2
1512715075723608,0,3,-3,-1,-2,-1,-1,1
1512715075723608,-2,-3,1,3,1,-1,0,-1
1512715075729596,-2,-4,-6,-2,-1,-1,0,-1
1512715075729596,-1,0,-2,-2,-2,-1,0,0
1512715075745599,-1,1,7,7,1,0,-1,-1
1512715075745599,0,-8,-5,-2,-2,-2,-3,-2
1512715075752600,-1,-1,0,0,-1,-2,1,0
1512715075752600,2,2,1,-1,-2,0,-3,-5
1512715075760647,-5,-12,-8,-7,0,-1,0,-1
1512715075760647,-2,2,0,0,0,-1,-1,-2
1512715075774601,-1,-4,2,0,-1,0,-1,-1
1512715075774601,0,11,-5,-2,-2,-3,-3,0
1512715075783605,-3,-7,2,-2,0,2,-1,-1
1512715075783605,0,-6,1,0,1,-3,-2,0
1512715075790647,1,9,-4,-3,0,-1,-1,-1
1512715075790647,-3,-12,2,-2,-2,0,-1,-1
1512715075805603,1,4,-1,-2,-1,0,-1,0
1512715075805603,-1,7,-1,-1,2,-1,1,-2
1512715075812604,-2,-7,-2,2,1,1,-1,-2
1512715075812604,-2,-5,-1,1,-1,0,0,-1
1512715075819603,0,-1,-3,0,0,0,0,0
1512715075819603,1,1,0,0,-1,2,1,2
1512715075834605,-1,-6,2,6,-2,2,1,-5
1512715075834605,0,3,-2,-9,-5,-5,-2,0
1512715075843748,0,0,-7,-5,-7,-5,0,0
1512715075843748,-3,-4,2,4,3,1,-1,0
1512715075850603,-1,7,-4,-1,-2,-3,-2,-1
1512715075850603,0,-3,5,9,4,3,-2,-1
1512715075865610,-2,-5,-6,-3,-5,-3,-2,-3
1512715075865610,-4,1,4,-2,-3,0,-1,-2
1512715075872610,-3,-3,4,1,0,2,-1,-2
1512715075872610,1,-6,-9,-5,-3,1,2,-1
1512715075879608,1,4,3,2,7,-1,-1,1
1512715075879608,-1,-3,-4,-3,0,0,-1,-2
1512715075894611,-2,-2,-3,-4,-1,-4,-1,-1
1512715075894611,-2,7,2,0,-3,-4,-4,-2
1512715075903754,-3,-5,1,-1,0,4,1,-3
1512715075903754,3,9,-3,-2,-3,-7,-6,-1
1512715075909658,2,-1,0,-2,-4,-3,-1,-1
1512715075909658,1,1,0,0,0,-1,1,4
1512715075925616,-3,1,3,3,-3,-1,-3,-6
1512715075925616,-2,-9,-6,-4,-4,0,-2,-3
1512715075932614,-2,13,-8,-5,-1,3,3,2
1512715075932614,-2,-9,0,2,2,0,-1,-2
1512715075939615,5,17,-1,-2,-3,-4,0,4
1512715075939615,-4,-13,-2,-2,-1,-2,-4,-4
1512715075954616,-3,-4,-3,1,1,1,2,-2
1512715075954616,1,5,2,-3,-8,-5,-2,0
1512715075963632,-4,-19,0,0,-5,-5,-1,-3
1512715075963632,1,5,-1,3,14,9,3,0
1512715075977618,0,1,5,0,-3,-1,-1,1
1512715075977618,-3,-3,1,4,23,5,-1,-1
1512715075986616,-1,-1,-3,2,5,0,-1,-1
1512715075986616,3,9,-2,-5,-5,2,2,5
1512715075992619,-2,-10,-1,1,-6,-5,1,1
1512715075992619,-2,3,0,3,7,3,0,-2
1512715076008625,-5,10,-1,-3,0,1,-2,-1
1512715076008625,-2,-7,-5,0,0,-1,-3,-5
1512715076015620,-1,-11,4,-2,-2,-2,-4,-4
1512715076015620,6,2,-2,-3,-11,-2,3,2
1512715076023633,0,3,1,2,5,-2,0,1
1512715076023633,4,-2,0,-5,-11,-10,-3,3
1512715076037623,-5,-6,0,1,4,0,-1,-3
1512715076037623,-5,-12,-6,1,-6,-2,-2,-4
1512715076046624,-1,-4,3,1,1,3,1,-1
1512715076046624,-2,-8,4,-4,-2,-2,-2,-2
1512715076052627,2,12,-3,-2,1,-2,-2,-2
1512715076052627,-3,6,1,0,0,-3,-3,-4
1512715076068630,-1,-3,-8,-3,0,5,4,2
1512715076068630,0,4,4,-1,-5,-5,-2,-3
1512715076074627,-6,-14,-6,-2,1,-1,-4,-4
1512715076074627,0,3,-1,-4,-3,1,-1,-4
1512715076084626,3,-4,1,-3,-7,-1,-3,-3
1512715076084626,-1,22,6,1,-2,-6,-1,-4
1512715076097625,4,-8,-10,-2,-1,-2,-1,1
1512715076097625,-2,0,0,-2,-8,-5,-2,-1
1512715076106628,0,-4,0,-1,-3,-1,-3,-3
1512715076106628,-5,-3,-4,2,3,6,3,-3
1512715076112632,0,-12,-8,-3,-7,-2,-2,3
1512715076112632,0,5,10,1,-1,-3,-3,1
1512715076128777,-1,3,6,-1,0,0,-2,-3
1512715076128777,-1,-14,-1,5,6,4,2,2
1512715076134637,2,15,0,-3,0,-1,1,-3
1512715076134637,0,-23,-11,-5,-5,-4,-2,0
1512715076143637,-6,-3,5,0,3,0,-2,-2
1512715076143637,3,23,3,-1,-3,-3,-1,-4
1512715076157634,1,-5,-5,-2,-2,-1,0,0
1512715076157634,-1,2,-1,-2,-3,0,0,0
1512715076166635,1,-4,-4,1,-1,0,-1,6
1512715076166635,-2,2,-2,-2,-1,0,-2,-3
1512715076172636,-1,-6,-6,-2,-2,-4,-2,-1
1512715076172636,0,8,7,0,4,1,0,-3
1512715076188684,-3,-16,-5,-2,0,-2,-2,-2
1512715076188684,0,3,-5,-3,-4,-2,-2,2
1512715076194638,3,15,8,2,0,2,0,0
1512715076194638,-4,-11,-5,1,2,2,0,0
1512715076203637,-1,-2,-2,-1,-3,-3,-2,-2
1512715076203637,-4,-3,-2,-1,-2,0,-2,-1
1512715076217639,0,19,-3,-1,0,0,0,-8
1512715076217639,5,-8,7,0,-2,0,-1,5
1512715076226638,0,5,-7,-9,-5,-9,-5,-1
1512715076226638,1,5,-5,-3,-2,2,2,-1
1512715076232638,-4,-6,2,0,-2,-2,1,1
1512715076232638,-7,-3,-8,0,3,3,1,-5
1512715076255643,3,5,4,1,-3,-2,1,-2
1512715076255643,0,-15,-1,-3,-5,-5,0,1
1512715076256642,-1,-6,5,6,23,10,3,2
1512715076256642,0,3,-1,-2,-1,-4,-2,-1
1512715076264641,-1,-11,-7,-2,1,0,-3,-2
1512715076264641,0,4,1,-3,-5,-2,-3,-2
1512715076277645,-3,-2,-9,-5,-8,-1,-3,-3
1512715076277645,4,9,7,0,-3,-2,-2,1
1512715076286645,-6,-2,5,-2,0,-2,-2,-4
1512715076286645,6,15,4,3,4,5,7,5
1512715076292646,-3,-30,-12,-3,-6,-3,-3,0
1512715076292646,2,0,8,-3,-1,-3,-2,0
1512715076308645,-4,1,-19,0,-6,-3,-1,-4
1512715076308645,3,4,12,1,-1,-2,-1,1
1512715076316645,-1,6,-20,-5,-4,1,-2,0
1512715076316645,-3,-1,-5,-5,-5,0,-1,-2
1512715076323647,1,10,5,-1,6,5,2,-2
1512715076323647,-9,-12,9,3,3,-2,-2,-4
1512715076337644,4,2,-8,0,-3,0,0,5
1512715076337644,-4,-1,-11,-5,1,-3,-2,-2
1512715076346647,1,-2,-41,-7,-8,0,1,0
1512715076346647,1,-7,28,7,-6,-9,-9,-3
1512715076352648,-2,5,19,2,-5,-3,-4,-6
1512715076352648,-4,-13,6,2,-4,-1,0,-4
1512715076368659,7,14,-2,-2,-1,1,3,7
1512715076368659,-8,-10,-16,-5,-8,-4,0,-1
1512715076374648,-1,-4,21,5,6,2,1,1
1512715076374648,-2,4,-14,-2,3,3,2,-2
1512715076383648,2,2,6,1,-5,-2,-2,-1
1512715076383648,1,-12,-29,-6,-5,-6,-1,0
1512715076397651,1,8,19,2,-10,-4,-1,-4
1512715076397651,-1,-2,-2,0,12,1,-2,1
1512715076414651,0,6,34,5,0,-2,-3,-1
1512715076414651,-4,-1,-8,-4,1,0,-1,-5
1512715076415651,1,7,-5,-2,-6,-5,0,0
1512715076415651,-3,3,-7,-3,1,4,1,-1
1512715076429652,-2,-12,-9,4,11,0,-1,-1
1512715076429652,1,1,-20,-5,-5,-2,-1,-2
1512715076434654,0,5,27,8,23,11,5,0
1512715076434654,0,-7,-6,0,-10,-13,-6,0
1512715076443653,-2,1,7,0,-9,-4,-2,-1
1512715076443653,-2,-5,-16,-6,0,6,2,0
1512715076457651,-4,-5,-13,-5,-2,-3,-3,-1
1512715076457651,3,0,3,0,-11,-2,0,1
1512715076466655,-6,-7,-3,-2,-2,-5,-2,-3
1512715076466655,4,-4,4,-2,2,0,-3,0
1512715076472654,-3,7,-8,-4,-1,1,0,-3
1512715076472654,2,17,6,9,7,0,-2,-3
1512715076488654,-3,-15,-6,-7,-6,-1,-2,-2
1512715076488654,-4,-8,3,1,-4,-6,1,1
1512715076494652,-2,-5,-6,-7,1,4,-1,0
1512715076494652,-2,-1,-6,1,9,4,4,0
1512715076503655,2,2,10,0,-2,0,-1,1
1512715076503655,-4,2,5,1,4,1,-1,-2
1512715076517658,-1,-4,-2,-2,-6,1,0,0
1512715076517658,-1,-1,-10,-2,-1,-1,0,-2
1512715076526658,-3,-2,8,-3,-1,-1,-3,-2
1512715076526658,-2,1,3,-3,-5,-2,-2,-1
1512715076532658,2,2,-3,4,2,1,1,3
1512715076532658,0,-2,1,-4,-9,-5,-3,-3
1512715076555656,0,7,6,6,21,13,2,0
1512715076555656,-2,-10,-13,-1,-9,1,0,-1
1512715076556659,0,-1,-2,-2,-4,-7,-3,-1
1512715076556659,0,-5,3,-2,-2,-1,0,1
1512715076563657,1,8,-2,-3,-3,-3,1,1
1512715076563657,1,3,-1,0,5,3,-1,-2
1512715076577660,-4,-4,-4,-3,-6,-3,-3,-2
1512715076577660,-4,-7,3,1,3,1,-2,-2
1512715076586661,1,5,-8,-3,-9,-6,-3,0
1512715076586661,-1,5,4,1,3,2,1,-1
1512715076599658,0,4,2,-1,2,-1,-4,-1
1512715076599658,3,5,-5,-4,-5,-3,-2,0
1512715076608661,-3,-7,-6,-1,-6,-2,2,-3
1512715076608661,1,4,1,1,9,1,-2,-2
1512715076623663,-3,-6,-2,0,-2,-4,-3,-3
1512715076623663,1,-6,-4,-3,-2,1,1,1
1512715076625664,0,11,9,-2,-6,-1,-3,-4
1512715076625664,0,-9,-6,6,-5,-3,0,-1
1512715076637664,-3,0,1,-12,-1,-2,0,-2
1512715076637664,2,-2,-2,1,-1,2,-1,1
1512715076647667,-2,0,0,-3,-1,0,0,-1
1512715076647667,1,-1,-4,-3,-1,-2,-1,0
1512715076665664,-3,-5,0,4,0,-2,-1,-1
1512715076665664,-1,2,4,-3,-3,-4,-3,0
1512715076671666,1,-1,1,0,2,2,-1,0
1512715076671666,-1,3,0,-2,3,2,0,0
1512715076683666,0,-6,-7,-1,-4,-3,0,-1
1512715076683666,-2,-3,1,0,-3,-1,0,-2
1512715076685668,1,-4,2,1,1,-1,0,1
1512715076685668,-2,0,2,-2,1,-1,-2,0
1512715076697668,0,-6,-7,-1,-3,-3,-2,2
1512715076697668,-3,-5,0,-2,-2,-1,-2,-2
1512715076706664,-2,6,-5,1,0,-1,-2,-3
1512715076706664,-2,0,1,-1,-1,0,-1,-3
1512715076720669,-1,1,-3,0,-2,-4,-1,-1
1512715076720669,-3,-5,-1,1,-5,-4,-2,-1
1512715076727667,0,-6,-6,1,3,2,1,-1
1512715076727667,-1,-1,3,-4,-2,-2,1,1
1512715076743667,2,5,3,-1,-1,0,0,-1
1512715076743667,-2,-4,-4,-4,-2,-2,-2,-3
1512715076745668,-2,2,2,-4,-4,-2,-4,-1
1512715076745668,0,-4,-11,-2,-2,-1,-1,0
1512715076757670,-2,-3,12,5,8,7,1,1
1512715076757670,-2,5,-4,-2,0,-1,-4,-5
1512715076766671,0,-12,-1,-4,-4,-2,0,2
1512715076766671,-1,-1,9,4,-7,-3,-2,-2
1512715076780673,0,5,-10,-2,9,-1,-1,-1
1512715076780673,-3,-3,4,2,3,3,3,2
1512715076787673,-1,-2,-4,0,-4,-2,0,-1
1512715076787673,-2,-5,1,-6,-5,-4,-4,-2
1512715076803672,4,3,-5,-1,-16,-10,0,-1
1512715076803672,0,3,3,5,2,-1,2,2
1512715076805674,-1,0,-2,-5,-3,-1,-1,-1
1512715076805674,0,2,1,1,-3,0,-1,0
1512715076817672,0,1,-7,-4,-7,-5,-3,-3
1512715076817672,1,1,1,-2,3,-2,0,1
1512715076826675,-1,-4,-7,-1,-3,-1,-1,-1
1512715076826675,-3,-3,3,0,-1,-2,-1,-3
1512715076842675,-2,-1,2,-2,-2,3,-1,0
1512715076842675,0,-1,-2,-5,-8,-4,-3,-3
1512715076848677,-3,-3,-3,1,4,0,1,0
1512715076848677,0,3,-13,-1,0,-1,0,-1
1512715076871675,1,-2,24,5,2,-1,-1,0
1512715076871675,1,3,-3,-3,1,1,-2,-2
1512715076871675,-4,-9,1,1,3,0,-1,-1
1512715076871675,2,9,-6,-2,-1,-1,-1,-2
1512715076877677,-2,-1,2,-2,-2,-3,1,1
1512715076877677,-2,5,3,0,1,1,0,-1
1512715076886677,1,-6,3,0,1,1,-1,-2
1512715076886677,-2,-4,-5,-1,3,-1,-3,-2
1512715076901678,0,-6,-10,-1,0,2,-1,1
1512715076901678,-1,-1,1,-4,-7,-4,-3,-2
1512715076907678,-3,-2,-8,-3,0,3,1,0
1512715076907678,-2,-7,0,-1,1,1,1,-4
1512715076923682,-3,6,-9,-1,-3,-3,-2,-3
1512715076923682,-1,-2,4,-2,2,2,0,1
1512715076925679,1,0,1,-1,-1,-2,1,-1
1512715076925679,0,-1,2,-3,3,2,-2,2
1512715076937812,0,-3,-3,1,4,1,-1,-1
1512715076937812,-4,-8,-1,0,-3,-2,-3,-4
1512715076946681,-2,-11,2,-2,1,-1,-1,1
1512715076946681,0,14,-1,-3,-9,-3,-1,1
1512715076960679,0,-3,-3,3,11,3,-1,-3
1512715076960679,1,1,-6,0,1,1,1,2
1512715076967682,1,-2,3,0,-2,-2,-4,-2
1512715076967682,-2,-3,1,0,1,2,1,0
1512715076983680,-3,-5,-3,-2,-5,1,1,-3
1512715076983680,-2,-7,-2,-2,-1,0,-2,-2
1512715076985682,0,9,-2,-4,-1,-3,-1,-3
1512715076985682,-3,-4,0,-1,-1,-1,-1,-3
1512715076998685,3,-1,2,-1,-3,-1,0,2
1512715076998685,0,-2,-3,-3,-1,-2,0,1
1512715077007683,0,5,-2,-1,-3,-2,1,-2
1512715077007683,-3,-3,2,-1,-1,-1,-3,-2
1512715077020687,-1,-2,1,1,0,-1,-1,-1
1512715077020687,-1,-5,1,1,-3,1,0,0
1512715077027686,0,5,-3,1,-1,-2,-1,0
1512715077027686,-1,-2,-7,-1,1,-1,0,-2
1512715077043687,-2,-8,0,-3,-5,-4,-1,-2
1512715077043687,-2,8,0,-3,-3,-1,-1,-2
1512715077045686,0,-4,-1,0,-1,-2,-1,1
1512715077045686,2,-1,4,2,1,0,-1,-1
1512715077057685,0,0,-2,-2,-2,0,-2,-1
1512715077057685,-1,-4,-5,-1,0,0,0,-2
1512715077066689,-1,-3,1,-2,-4,-2,-2,0
1512715077066689,1,3,0,-1,0,-1,0,0
1512715077080690,-1,-2,3,-2,-5,-2,0,0
1512715077080690,-4,-1,-8,0,6,0,-2,-2
1512715077087686,-2,3,-4,1,-5,-1,-2,-1
1512715077087686,0,2,4,1,3,2,1,1
1512715077102691,-6,-9,-7,-4,-1,-1,-1,-3
1512715077102691,2,1,3,2,-4,-2,0,1
1512715077111690,-1,3,-5,-3,-2,-1,-2,-1
1512715077111690,-2,-4,-2,0,0,1,-1,-3
1512715077122692,-2,6,-1,-1,-3,-1,-2,-3
1512715077122692,0,1,3,-3,-1,-2,-1,-1
1512715077134691,-1,-11,-1,0,-2,-4,-1,0
1512715077134691,0,4,0,0,5,4,3,0
1512715077142692,0,0,-2,-1,-1,-2,0,-1
1512715077142692,-1,-2,-7,0,-1,0,0,-2
1512715077148693,-1,-2,4,0,3,2,0,-1
1512715077148693,-3,-3,-5,-3,-5,-4,-3,-2
1512715077163692,-1,0,6,0,-2,0,0,0
1512715077163692,-2,2,-4,1,1,0,-2,-1
1512715077165693,-1,0,4,-2,-3,-2,0,-2
1512715077165693,-2,-4,-1,0,-1,-1,0,1
1512715077177695,-1,-2,-2,-1,3,0,-1,-2
1512715077177695,-2,-2,-2,-2,-2,-2,-1,0
1512715077188694,1,-1,-4,-2,1,3,0,-1
1512715077188694,-1,6,4,-4,-4,-4,-5,-3
1512715077200692,-1,-4,0,-1,0,1,1,-1
1512715077200692,0,-2,-4,0,-1,1,-1,-1
1512715077208696,-2,-5,-6,-1,1,-2,-1,-4
1512715077208696,1,-6,5,2,-1,-3,0,-1
1512715077223694,-1,3,-6,-3,-4,-4,-3,-1
1512715077223694,0,-3,3,-1,0,-1,-1,0
1512715077233697,-4,1,-2,-1,-3,-1,-2,1
1512715077233697,-2,4,1,0,-2,-3,0,0
1512715077237699,-1,-2,-3,0,-1,-1,-2,-1
1512715077237699,0,-2,-3,-2,-1,-1,1,2
1512715077247701,2,2,3,-2,1,-1,1,0
1512715077247701,0,-4,-11,-4,-1,-1,1,0
1512715077260699,-1,3,2,-2,-3,-4,-2,-1
1512715077260699,-1,2,3,-1,0,-1,2,-1
1512715077267698,2,5,-1,2,0,0,-1,-1
1512715077267698,-4,-13,-8,-2,-2,-1,-2,-3
1512715077283715,0,0,-9,-1,0,1,-1,0
1512715077283715,-1,1,8,1,-2,-3,-3,-1
1512715077289700,-3,-4,-1,0,-1,-2,-3,-3
1512715077289700,-1,5,2,-1,-2,-1,-1,-1
1512715077297702,-1,-10,-9,-1,-1,-1,0,0
1512715077297702,2,3,0,0,1,2,1,0
1512715077322701,1,0,1,-2,0,-4,-2,1
1512715077322701,0,-4,0,-1,-1,-1,-3,-2
1512715077323702,-1,2,1,-1,-2,-2,1,0
1512715077323702,-2,-8,-2,-2,-3,-4,-2,-1
1512715077327702,-2,7,0,0,-2,0,-2,-1
1512715077327702,0,-2,3,-2,-1,-3,-2,-1
1512715077343702,-2,-1,0,1,2,3,1,-2
1512715077343702,-2,-11,-2,-2,-1,-4,-1,-3
1512715077349702,1,5,-5,-2,-3,-3,-1,0
1512715077349702,0,2,4,1,-3,-2,-1,-1
1512715077357700,0,-1,3,-1,1,-1,1,0
1512715077357700,-1,-2,-8,-1,0,2,-2,-2
1512715077366706,-3,-7,-13,-4,-1,2,-2,-1
1512715077366706,-1,3,-1,-2,-4,-1,0,-1
1512715077380708,-1,-2,5,0,-5,-5,-2,0
1512715077380708,2,11,1,-2,5,5,0,1
1512715077387709,-4,-3,-1,-2,-2,-2,1,-1
1512715077387709,-2,-11,1,1,1,2,-2,1
1512715077403706,2,4,4,1,-3,-1,1,0
1512715077403706,-2,1,-3,-2,-4,-3,0,-1
1512715077409709,-3,-11,-4,-1,-3,-3,-2,-2
1512715077409709,0,9,0,-2,1,0,-2,-1
1512715077426720,-1,-5,-4,-1,-1,0,-2,0
1512715077426720,-2,-1,-2,-1,-1,-2,-1,-3
1512715077427706,-1,-1,5,0,-3,-4,-2,-3
1512715077427706,-4,-11,-3,-1,-1,-3,0,-1
1512715077440708,0,8,-2,-2,0,2,-3,0
1512715077440708,-4,-1,-2,0,-3,-2,-2,-2
1512715077447708,0,-2,1,0,0,1,0,2
1512715077447708,-1,-1,0,2,1,1,0,2
1512715077463726,0,-3,-2,-2,-1,1,-1,-1
1512715077463726,-3,2,1,0,-1,-1,0,-1
1512715077469707,1,-3,-6,-1,1,1,-1,1
1512715077469707,1,2,11,1,0,2,1,-1
1512715077486710,-2,-3,-4,-1,-1,-2,-1,-2
1512715077486710,-4,-3,-5,-5,-4,4,1,0
1512715077487710,-3,-2,1,3,10,0,0,0
1512715077487710,-1,-1,-12,-2,-1,-2,-2,-1
1512715077500711,-3,-4,-2,-1,1,-2,-3,-2
1512715077500711,-5,-3,4,-2,-1,-6,-3,-2
1512715077507712,3,6,-11,-1,-12,-1,3,2
1512715077507712,1,-1,2,1,8,4,1,0
1512715077523715,-3,-4,5,0,1,-3,0,-4
1512715077523715,-3,-5,-12,-3,-4,-3,-1,-1
1512715077529714,-3,-3,6,-2,-4,-3,-2,-2
1512715077529714,0,-2,-1,0,-4,-3,-2,-3
1512715077546728,-2,-1,-3,0,2,1,-3,-1
1512715077546728,1,-2,4,0,-1,2,-1,0
1512715077547714,-1,-1,2,2,-1,-1,-1,-3
1512715077547714,-3,1,-1,-3,-1,0,-2,-2
1512715077560715,0,4,-11,-7,-13,-11,-4,0
1512715077560715,4,-2,16,8,33,19,4,3
1512715077567715,-3,-6,1,1,7,9,-1,-2
1512715077567715,-3,-1,-5,-2,-3,-4,-3,1
1512715077583729,-2,0,4,-2,-6,-3,-3,-3
1512715077583729,-2,0,-1,-3,-15,-13,-6,-4
1512715077589717,1,-3,-5,-6,-3,-9,-3,0
1512715077589717,0,1,0,2,9,10,6,0
1512715077606715,0,-2,-6,-1,7,4,2,3
1512715077606715,2,1,-2,-2,-17,-7,-3,1
1512715077607717,-3,-2,2,-1,4,3,-1,-4
1512715077607717,-2,8,-3,-5,-3,-4,-4,-3
1512715077620719,-2,-4,3,0,0,-2,0,-1
1512715077620719,-2,-2,-5,1,1,-1,-2,-4
1512715077627719,6,11,3,-3,-12,-6,0,4
1512715077627719,-2,-9,3,3,10,-3,-2,-2
