timestamp,emg1,emg2,emg3,emg4,emg5,emg6,emg7,emg8
68202362081,-3,1,0,1,3,-1,-5,0
68202362081,0,1,-1,2,3,0,-3,-1
68202362943,-2,0,4,3,1,-3,-3,-3
68202362943,1,2,-11,-7,-4,-3,-3,-2
68202363732,-2,-1,5,-1,-3,-4,0,-1
68202363732,-1,-1,-2,-1,-2,-2,-2,-2
68202367272,0,-1,-4,-4,-3,-3,-4,-1
68202367272,-2,3,6,4,-2,-4,-4,-3
68202373779,5,-1,-7,0,17,13,5,4
68202373779,-5,0,2,3,1,-4,-5,-2
68202383187,-5,-12,-16,-11,-2,0,2,0
68202383187,-1,1,5,3,-2,-5,-3,0
68202388844,-5,11,1,-1,2,3,0,-3
68202388844,7,-10,-12,-17,-10,-2,1,4
68202404501,-4,6,7,9,2,0,-3,-9
68202404501,3,-4,-2,-3,1,1,1,1
68202412528,11,4,8,8,-1,-4,3,-2
68202412528,-30,0,8,8,3,3,-3,-7
68202419468,-2,-2,-2,-6,-5,-6,-2,-3
68202419468,-2,3,4,5,3,1,3,1
68202433831,-4,-2,-2,0,-4,-2,1,-5
68202433831,6,-1,-2,-2,3,5,2,2
68202442471,1,-1,0,0,-3,-3,-6,1
68202442471,-1,-4,-2,-4,-7,-5,-6,0
68202481256,-5,-3,-1,-3,6,0,-12,-7
68202481256,-3,0,-1,-1,0,2,-1,-3
68202482007,-1,-2,0,1,4,2,3,1
68202482007,-1,2,3,-1,-1,-2,1,1
68202483036,2,5,3,3,-4,-5,0,0
68202483036,-4,-9,-11,-8,-5,-4,-2,-4
68202487416,-2,2,5,0,-2,-2,-2,-1
68202487416,-2,-3,-6,-6,-3,0,-2,-2
68202493392,0,2,-2,0,-3,-1,0,1
68202493392,0,2,3,0,2,-1,0,-1
68202501647,0,-1,-1,2,-2,1,1,1
68202501647,1,-3,-1,2,4,2,0,1
68202508630,-3,-1,-2,-1,-1,-1,1,-3
68202508630,0,0,1,2,-1,1,-1,1
68202524052,-2,0,-4,-4,-3,-2,-3,-3
68202524052,0,1,1,-3,-2,-1,-2,0
68202531065,0,-2,-3,0,2,0,0,0
68202531065,0,2,1,0,-4,-5,0,-1
68202547417,-1,-5,-6,-5,-1,-4,-3,-1
68202547417,-3,-3,4,4,8,6,-1,-2
68202553410,1,0,4,2,-1,1,7,2
68202553410,-2,-3,9,3,-3,-4,-3,2
68202562381,0,-1,-7,-10,-6,-6,2,-8
68202562381,1,3,2,5,0,-2,0,-2
68202568569,-7,-5,-2,-5,-2,1,-8,-3
68202568569,-3,3,4,2,0,1,15,2
68202585029,17,-1,-2,2,4,5,2,2
68202585029,-2,2,0,-2,-5,-4,-2,-1
68202590927,0,-3,0,3,5,-1,1,0
68202590927,2,-2,-8,-4,-3,-2,-5,-1
68202606088,-6,0,8,1,-3,-5,-5,-3
68202606088,5,-3,-12,-2,-1,1,2,0
68202613354,-3,-2,-2,-4,-5,-3,-7,2
68202613354,-5,0,-3,-6,-2,-2,-1,-3
68202622326,-17,2,4,4,3,-1,-5,-10
68202622326,8,-1,-5,-4,-1,1,10,1
68202628316,11,2,10,3,-2,-1,1,6
68202628316,2,-2,-16,-14,0,1,-1,-8
68202644826,-8,1,3,5,-1,1,-1,-8
68202644826,-4,2,15,2,-2,-4,-4,18
68202650782,0,-2,-23,-10,1,2,1,-4
68202650782,1,-4,-5,8,1,0,-5,2
68202666052,-10,-4,2,4,-2,-1,-1,3
68202666052,-1,-2,-11,-8,-4,-4,-5,-8
68202673458,-4,-2,6,1,-3,-3,-1,-3
68202673458,0,5,5,4,3,-1,-3,-1
68202682429,-2,-5,-12,-11,-4,-1,-1,5
68202682429,-1,-3,4,7,-1,-1,-1,-4
68202688459,-1,1,1,-2,-1,-1,-2,-5
68202688459,-7,-3,0,0,1,-3,-3,0
68202704952,6,2,0,2,2,1,-2,-1
68202704952,0,2,0,-3,-3,-1,2,2
68202711127,-5,-3,-1,-1,4,4,-1,-8
68202711127,-2,-5,-3,-3,-3,-3,-4,-3
68202726094,3,-2,-2,-2,-1,1,2,4
68202726094,-5,-2,5,0,-3,-4,-4,-6
68202733604,-3,-1,-10,-3,-1,0,1,4
68202733604,5,3,14,7,2,1,1,1
68202742496,2,-1,-19,-1,0,-1,-3,-3
68202742496,-7,-5,-25,-15,-5,-4,-5,-5
68202748702,2,-3,5,4,-5,-2,0,-3
68202748702,5,3,0,-2,1,2,-2,1
68202764999,-7,1,0,-3,3,4,-1,2
68202764999,0,-2,25,10,-3,-1,-3,-2
68202771207,-1,-4,-5,-1,1,-3,-1,-3
68202771207,1,-1,-3,-5,-3,-3,-4,0
68202787506,4,2,4,6,-3,-7,-2,0
68202787506,-3,0,22,3,4,2,-1,-4
68202793655,-5,-10,-11,-6,-5,-2,-1,0
68202793655,-4,-6,-4,-3,-4,-3,-1,1
68202802470,-3,2,2,4,8,2,-3,-8
68202802470,1,5,-10,2,1,-1,1,1
68202808461,1,5,-2,-10,-4,-5,-2,2
68202808461,-1,-1,1,1,-1,2,2,0
68202824971,2,-2,-5,-9,-2,-1,-1,1
68202824971,-1,4,2,5,6,1,0,0
68202831166,-1,-2,-2,7,-4,-1,-2,-1
68202831166,-11,-4,-5,0,0,-2,-1,-3
68202847489,7,-1,7,-2,-6,-3,-2,2
68202847489,1,-3,12,2,2,1,0,-2
68202853447,2,1,-14,-2,4,2,1,2
68202853447,-3,8,1,0,-3,-1,0,0
68202862489,-5,-14,1,-3,-3,-3,-1,0
68202862489,-2,2,-10,-1,-3,-2,-5,-3
68202868483,-4,-8,9,1,0,0,0,-1
68202868483,1,-3,-6,-3,-4,-1,-4,1
68202884993,-1,7,5,1,1,1,2,-1
68202884993,-2,-2,-2,4,-1,-1,-3,-1
68202891152,-2,1,-7,-9,-2,0,-8,-1
68202891152,3,-1,6,0,0,-1,9,-4
68202907404,0,0,2,2,-1,0,-1,3
68202907404,-9,-7,-12,-5,-1,0,-2,-3
68202913421,9,-1,6,2,-2,-3,1,5
68202913421,2,-3,-4,-1,-2,0,-1,0
68202922412,-4,-1,-8,1,14,1,-3,-1
68202922412,3,1,-5,-9,-5,-4,-2,-3
68202928603,-11,6,2,3,-6,-4,-1,-2
68202928603,2,-2,-1,-2,1,1,0,1
68202944997,1,-9,1,-3,-4,-1,-2,-2
68202944997,-4,-8,1,-1,-3,1,-2,-2
68202951135,-1,0,4,-2,0,-1,1,-2
68202951135,-1,1,0,0,-5,-2,-3,-2
68202967518,-6,0,-3,-1,-3,-1,-1,-4
68202967518,1,-1,-4,-5,1,-1,1,4
68202973462,-1,-4,-2,-2,-3,-3,-3,-9
68202973462,1,-3,2,5,2,-3,-1,1
68202982418,0,2,-10,-10,-3,-1,2,1
68202982418,-2,-5,-6,-4,-5,-4,-2,-1
68202988374,2,7,0,-3,-2,-2,0,-1
68202988374,-6,-12,-2,4,7,6,-2,-2
68203004881,-1,3,1,-2,-5,-2,-4,-4
68203004881,-3,-1,-2,2,0,-1,0,0
68203011075,2,-1,4,0,-1,-2,-1,2
68203011075,-2,3,-2,-6,-7,-5,-2,-2
68203026044,2,-1,-2,-3,-7,-2,1,2
68203026044,0,2,-2,-1,3,0,-4,-5
68203033420,1,-7,6,1,-15,-1,6,10
68203033420,-5,-4,-8,-21,1,1,-3,-8
68203042443,2,2,6,4,-4,-3,-2,-2
68203042443,-3,-1,-5,-4,-7,-4,-1,-3
68203048527,2,3,1,1,0,0,3,3
68203048527,0,-1,-1,-3,-8,-5,-3,2
68203064963,-5,0,-4,-3,-2,-4,-5,-3
68203064963,3,0,-3,-4,2,-1,-4,2
68203071042,-3,0,0,-3,-6,-2,2,-6
68203071042,-1,0,4,6,3,1,-1,-1
68203086084,0,-2,2,-1,5,1,1,1
68203086084,-1,3,-2,7,7,3,5,5
68203093396,4,-2,-1,5,10,4,-3,-6
68203093396,-6,-3,-6,0,-2,-3,-4,-2
68203102383,2,0,-2,1,1,-1,2,-4
68203102383,2,1,0,-12,-15,-4,-3,5
68203115907,-2,-3,-10,-10,-3,-6,-6,-4
68203115907,1,6,3,7,2,0,0,-4
68203124898,-9,-17,-3,-4,-13,-10,-10,-5
68203124898,-4,0,-3,-2,1,9,42,3
68203131071,-4,-5,-5,-4,-7,-1,-6,-3
68203131071,-2,4,0,1,3,4,3,-2
68203146023,3,0,-1,1,5,5,3,3
68203146023,-3,1,1,2,-2,1,-7,-4
68203153420,-2,-2,-1,-4,1,-4,0,3
68203153420,1,1,-2,10,5,-1,0,-1
68203162400,-4,-3,3,-5,-16,-7,-6,-1
68203162400,1,-4,-12,-5,5,-2,-13,-7
68203175976,-1,2,-4,0,-3,2,5,0
68203175976,3,6,1,-5,-4,-4,-7,1
68203184884,1,2,-1,0,2,0,5,-12
68203184884,-6,-18,-2,-2,-4,-7,-8,-4
68203191034,-1,5,1,1,2,1,-4,0
68203191034,1,-15,-3,-2,-1,2,7,0
68203206016,-11,9,0,-3,-8,-12,-50,-7
68203206016,14,2,0,-3,-1,4,18,23
68203213403,-19,-1,4,7,15,8,0,-23
68203213403,24,1,0,3,8,5,4,12
68203222412,-4,1,0,0,-1,-2,2,1
68203222412,3,0,0,3,0,-6,-15,-2
68203235985,-3,0,1,1,4,-4,-5,0
68203235985,-4,2,-1,-6,-7,-4,1,-5
68203244880,4,-2,-4,0,6,5,12,4
68203244880,-8,1,0,-1,-3,-5,-8,-15
68203251074,7,-2,-1,-2,-4,1,7,8
68203251074,-10,-2,-1,-3,-3,-2,-4,-7
68203266139,5,-3,-1,1,2,1,6,5
68203266139,-4,-3,-1,-2,-1,0,-3,-2
68203273606,2,-1,0,-2,0,-2,-7,-1
68203273606,-3,-1,-2,-3,-2,-3,-5,3
68203282452,-1,2,0,2,2,3,6,-2
68203282452,0,-4,-1,0,-2,-1,-2,-4
68203295835,-1,-1,-1,1,0,1,0,3
68203295835,-5,-1,0,1,-2,-2,-4,-1
68203304930,3,-4,-3,0,-1,3,11,2
68203304930,-1,5,2,-1,0,-3,-4,-4
68203310950,2,-2,1,-1,-3,-3,-3,2
68203310950,-1,-1,-2,-3,-2,0,-1,0
68203325865,-1,-1,0,-1,3,3,2,0
68203325865,-3,3,0,0,0,0,-1,-1
68203333613,-3,-3,-2,-2,0,-1,-5,1
68203333613,-3,2,0,-2,-3,-4,-3,-2
68203342458,0,-6,0,1,3,4,6,4
68203342458,-2,2,0,1,1,-2,-4,-4
68203355934,1,-1,0,0,-3,-2,3,1
68203355934,-3,-3,-1,-1,-2,-2,0,-4
68203364950,0,0,-1,-2,-1,-1,2,-1
68203364950,-3,-2,0,0,-1,-1,-4,0
68203371056,0,-1,-1,0,-1,-3,-3,-1
68203371056,-1,-1,0,-1,-3,-3,0,0
68203386117,-2,-1,-3,-1,-1,-1,-2,-1
68203386117,0,-2,-2,-3,-3,-2,-2,-1
68203393653,-3,2,0,-1,2,0,0,2
68203393653,1,-2,1,0,0,-1,-2,-2
68203402441,0,-2,-2,-1,0,-1,7,-1
68203402441,-4,0,-2,-1,-1,-2,0,1
68203416089,0,1,1,0,-3,0,-1,-4
68203416089,-2,-2,-1,0,-3,-3,-2,1
68203424934,0,0,1,0,-2,-1,-6,-1
68203424934,0,-1,0,0,1,-1,0,-1
68203431086,-1,-2,1,-1,1,0,1,1
68203431086,-2,0,0,-1,3,0,-3,-2
68203446214,0,-2,-1,-1,-1,1,3,-4
68203446214,0,-3,-4,-3,-3,-3,-10,-2
68203453496,3,-2,-3,0,0,-1,-1,1
68203453496,-5,-1,-3,-2,0,1,-2,-3
68203468585,0,-2,-2,0,1,0,1,3
68203468585,-1,-1,-1,-1,-1,0,0,-2
68203476099,-2,-3,-2,-1,-3,-2,-3,-2
68203476099,0,-1,-1,-1,-2,-2,-2,-2
68203491745,0,0,2,1,3,3,1,0
68203491745,-2,-2,0,0,1,0,0,-2
68203492365,2,0,-1,1,0,0,2,1
68203492365,1,-2,-2,-2,-3,-3,0,1
68203506143,-2,-1,0,-2,-3,-1,-2,-1
68203506143,-2,-2,0,-1,-1,-3,-3,-3
68203513380,0,0,0,0,1,0,0,-2
68203513380,-3,-6,-3,-1,1,3,2,0
68203528596,0,5,-2,-1,-3,-3,-4,-1
68203528596,-3,-4,-1,-2,-3,0,1,-3
68203535853,-2,0,1,-2,-2,-2,-1,1
68203535853,0,0,0,1,-2,-1,-2,-3
68203551570,0,-1,-1,-3,-1,-1,-2,-1
68203551570,0,0,0,0,0,1,1,0
68203552573,0,-2,-3,0,-1,-3,-2,0
68203552573,-1,-1,-1,0,0,0,2,0
68203566054,2,-3,-2,-3,0,-1,-1,0
68203566054,-1,4,-2,-1,-3,-1,1,0
68203573511,-2,-3,-2,-2,-2,-1,-1,-2
68203573511,1,2,0,0,0,-1,0,1
68203588551,-3,-5,-2,-2,-2,-4,-5,-2
68203588551,0,0,0,-2,0,-1,1,-2
68203596039,1,-1,-1,0,2,2,-1,0
68203596039,0,2,-1,-1,0,-2,-1,2
68203611584,-1,1,1,0,-2,-2,-1,-2
68203611584,-3,-3,-3,-2,-2,1,-2,0
68203612407,-2,0,0,-3,-2,-1,-1,-2
68203612407,-3,-4,-2,-1,-5,-1,0,-3
68203626099,-2,-4,-3,-2,2,1,0,-1
68203626099,-1,0,0,0,0,-2,-3,2
68203633449,-2,1,0,-1,2,2,2,-5
68203633449,-1,-1,-2,0,-2,0,-3,1
68203648618,0,1,-1,-2,-1,-2,-1,0
68203648618,1,-3,-2,-2,0,-2,1,0
68203656084,-1,-1,-3,-2,-2,-1,-1,-3
68203656084,-2,0,1,0,0,-2,-2,-1
68203671791,-3,-4,-2,-1,-1,-1,0,-1
68203671791,1,2,2,2,1,-1,-3,0
68203672426,-3,-3,-1,0,-1,-1,0,-2
68203672426,0,-2,0,0,-2,-2,-2,0
68203686129,-1,-1,0,-1,-2,-2,-2,0
68203686129,-1,-2,-1,1,1,2,2,-2
68203693418,-1,1,-1,-1,0,-1,0,1
68203693418,0,-1,-3,-1,1,-1,-1,-3
68203708565,0,-1,0,1,-3,-3,-2,-1
68203708565,-2,-1,-2,-1,-1,-2,0,-3
68203716055,-2,-2,-1,-1,2,1,-3,1
68203716055,-2,-3,-2,-3,-1,-2,0,-1
68203731783,1,1,-2,-1,-3,0,-2,-1
68203731783,-4,-1,-2,-2,-2,-2,0,-2
68203732404,1,-4,-1,-1,-2,-3,0,5
68203732404,-5,1,-1,-1,1,-2,-5,-12
68203746137,-2,1,2,1,0,-2,1,1
68203746137,1,-2,-1,-3,-3,-4,-5,-1
68203753614,0,-1,-1,0,2,3,1,-3
68203753614,0,-1,0,2,1,0,2,1
68203768617,-1,0,-2,-2,-2,1,-1,-1
68203768617,-1,0,0,1,1,0,1,-1
68203775963,0,-1,-1,-4,-4,-7,-2,-2
68203775963,1,0,0,1,1,2,0,1
68203791801,-1,-4,-3,-1,-3,-2,-1,-3
68203791801,0,-1,0,-3,-1,-3,0,-1
68203792394,-1,-1,-2,-1,-2,-3,-2,-2
68203792394,0,-1,-2,-3,-3,-1,0,1
68203806025,0,0,1,2,3,2,2,-1
68203806025,-2,-2,-1,-1,0,-1,-2,-2
68203813587,-1,-3,-1,0,-3,0,-1,-2
68203813587,-1,-1,-1,-2,-1,-1,0,-1
68203828568,-1,-3,-2,-2,-2,-2,0,0
68203828568,1,-1,-2,-1,-2,-1,0,-3
68203835962,-1,-3,-2,0,-1,-3,-1,-1
68203835962,1,0,0,-3,-3,-2,-2,0
68203851746,0,0,-1,-2,-2,-1,-2,0
68203851746,-3,-1,-1,1,2,2,0,0
68203852359,-1,1,-1,-1,1,1,1,1
68203852359,-2,0,-1,-1,0,-1,-2,0
68203866127,-1,0,-2,-1,-1,-1,-3,-3
68203866127,-3,-3,-2,-1,-2,-3,0,4
68203873452,0,-1,-1,-2,-2,-3,-3,-2
68203873452,0,-1,-2,0,-4,-1,-2,-2
68203888702,0,0,1,1,2,1,-1,-1
68203888702,-1,-3,-1,0,0,0,0,0
68203896177,-2,1,-2,-1,-2,-1,0,-2
68203896177,-1,-1,-1,-3,-3,-3,-2,1
68203911742,-1,-1,-2,-2,-5,-3,-1,-1
68203911742,0,0,2,0,-3,1,0,-2
68203912316,0,-2,-1,-4,-1,1,-1,-2
68203912316,0,0,1,1,1,2,-1,-2
68203926153,-1,-2,0,1,0,1,3,3
68203926153,-2,1,-1,-1,1,-2,-3,-8
68203933646,-1,0,-3,0,-2,0,-1,0
68203933646,1,-2,-4,-5,-4,-3,2,0
68203948568,2,-1,-2,-1,0,-1,-2,-1
68203948568,0,0,1,2,-2,1,-1,1
68203955956,-1,-1,-1,-2,-2,-2,-1,-4
68203955956,-2,0,-2,0,1,2,1,0
68203971089,-2,2,0,-1,-1,-3,-4,0
68203971089,-1,1,-1,-1,-1,0,0,2
68203979233,-3,-3,-1,0,0,-2,-2,-2
68203979233,-1,-4,-2,-2,0,-1,1,-2
68203986007,-1,-2,-1,-3,-1,-1,-2,-2
68203986007,0,0,2,-1,0,0,-2,-2
68203993594,1,-1,-2,-2,-2,-2,-1,1
68203993594,-1,-1,-1,0,0,0,-1,-2
68204008409,-2,-1,-2,0,0,-1,-1,-2
68204008409,-2,-1,-3,-2,-2,-2,-1,-1
68204016114,-2,-1,0,-2,-3,0,1,-2
68204016114,1,0,-2,0,-2,-2,-2,-3
68204031638,0,0,-1,-1,-3,0,-1,2
68204031638,-5,-4,-3,-4,-4,-4,-2,-8
68204032374,0,2,0,0,0,1,0,1
68204032374,-3,-2,-1,-1,-1,1,1,-1
68204045864,-2,-2,0,0,-1,0,0,0
68204045864,-1,-1,-1,-2,-1,-3,-2,-1
68204053556,0,-2,1,-1,-1,0,1,0
68204053556,1,2,-1,-1,1,-1,0,-1
68204068591,1,-2,0,-1,0,0,0,-2
68204068591,0,-1,0,-1,-2,-3,-2,-2
68204076069,-1,0,-1,0,-2,-3,-3,-1
68204076069,-1,-1,0,2,2,2,1,2
68204091105,-2,-3,-3,-3,-3,0,0,-3
68204091105,1,-1,0,1,-1,0,-1,2
68204099260,-1,0,0,-1,-2,-3,-2,-1
68204099260,-1,-3,-2,-1,-2,0,-4,-1
68204106111,-3,-1,-1,0,0,-2,1,-1
68204106111,2,-1,-2,-1,-1,1,1,5
68204113454,-4,-1,-1,0,1,-2,-3,-7
68204113454,1,0,0,-1,-2,-3,-3,0
68204128588,-2,-3,-1,0,0,1,0,-2
68204128588,1,3,0,-1,-1,-1,1,2
68204136040,-1,-6,-2,0,1,0,1,1
68204136040,-3,0,0,-2,0,1,-1,-1
68204151149,-1,-3,0,-1,-1,-2,1,0
68204151149,-2,-1,0,-1,-1,0,-1,-1
68204159258,-1,0,0,0,-3,2,0,1
68204159258,1,-3,-2,-2,-1,-2,-1,-1
68204166025,-2,1,-1,-3,-2,-2,0,0
68204166025,-1,-1,-2,-1,0,0,-2,1
68204173621,-1,-2,-2,-2,-2,-3,0,-2
68204173621,-3,1,1,0,-3,-1,0,-2
68204188622,2,-1,-1,0,3,2,0,0
68204188622,-2,-3,-2,-2,-3,-1,-2,-3
68204196049,-2,1,0,0,1,0,-1,-1
68204196049,0,-2,0,-2,0,1,-1,0
68204211134,0,-1,-1,-1,-4,-2,-3,-2
68204211134,-2,-3,-3,-3,-2,0,-1,-3
68204219341,-1,-1,-2,-1,1,0,-1,1
68204219341,-1,0,-1,1,-1,-2,-1,1
68204226059,0,-1,-1,-1,0,-1,-1,0
68204226059,-1,-4,-1,0,2,-2,1,1
68204233458,0,-1,-2,-3,-3,-1,1,0
68204233458,-2,-3,-2,-2,-3,-1,-1,1
68204248490,-1,0,-1,0,1,-2,-3,-1
68204248490,-1,0,-1,0,0,-1,-2,-3
68204256815,-1,-1,-1,-1,0,0,1,-2
68204256815,-1,-1,0,0,-1,-2,0,-2
68204271171,1,-1,-2,-4,-2,-1,-1,0
68204271171,0,0,-2,0,-1,0,0,-1
68204279314,-3,-1,-1,-2,-1,-4,-2,-1
68204279314,0,-1,-1,-1,-1,-1,0,0
68204294340,0,-1,-1,-1,0,-2,-1,-3
68204294340,-1,-1,-2,0,1,0,1,0
68204294956,-2,-1,-3,-3,-3,-1,-2,0
68204294956,-2,-1,0,-2,0,0,0,0
68204308601,-1,-1,-1,-1,-2,-3,-1,0
68204308601,-1,-2,-1,0,2,4,1,2
68204316839,0,-2,-1,-1,-2,0,-2,-4
68204316839,-2,-1,-2,-1,-2,-2,0,-2
68204331089,0,-1,-3,-2,-4,-3,-1,-1
68204331089,-1,-1,1,-3,-1,-1,-1,2
68204339185,-1,-1,0,0,2,1,1,-2
68204339185,-1,-1,-1,-2,-1,-2,-1,-3
68204354162,-1,-4,0,-1,-2,1,1,2
68204354162,-2,0,-2,-2,-4,-3,-1,-5
68204355026,0,1,1,2,-1,0,-3,2
68204355026,-1,-2,-3,-3,-3,-1,-1,-2
