timestamp,emg1,emg2,emg3,emg4,emg5,emg6,emg7,emg8
52867889749,-8,-14,2,-4,-1,-1,-3,-6
52867889749,44,-1,-7,0,0,0,0,6
52867890642,-41,-2,5,0,2,-2,-2,-7
52867890642,-9,1,2,-1,-3,-2,-2,-1
52867891900,27,-1,-2,-8,-8,-1,-1,2
52867891900,-57,-17,-3,1,2,-3,-6,-10
52867894197,4,-6,-6,-4,-7,-3,-1,1
52867894197,-1,1,1,7,5,0,-1,-4
52867902023,-19,2,-4,3,-1,1,1,0
52867902023,16,8,4,-1,1,1,-1,2
52867918157,10,-2,-5,-2,1,0,-1,0
52867918157,-3,-1,-7,-10,-1,1,1,-1
52867920159,15,4,1,17,10,-4,-1,4
52867920159,-22,-4,3,-12,-25,-6,-2,-6
52867932432,11,3,8,-18,-17,1,0,1
52867932432,-13,-9,-21,10,18,-1,-1,0
52867939443,3,3,-2,-23,-15,-3,-2,1
52867939443,6,6,-2,15,11,-3,0,5
52867954921,-36,-9,-5,7,0,-2,-4,-5
52867954921,22,1,1,-10,-7,2,4,8
52867961936,-7,1,-1,16,3,2,1,-2
52867961936,-16,-4,6,-4,1,0,-3,-7
52867969962,17,0,-9,-10,-6,-5,-1,3
52867969962,7,-2,-8,-1,-8,-7,-5,-8
52867976245,-6,3,11,1,10,4,1,2
52867976245,7,3,2,4,-6,-1,0,0
52867995276,2,0,-2,1,5,3,2,3
52867995276,0,-1,5,5,2,0,-3,-3
52867999575,3,-1,-9,-4,-8,-5,-3,-1
52867999575,3,-1,-9,-19,-23,-1,3,-3
52868046989,-8,-3,-1,1,-4,-2,1,-2
52868046989,-33,-4,-1,2,2,-3,-8,-2
52868048204,9,4,1,-2,-1,-2,-1,0
52868048204,8,-3,0,2,6,0,2,0
52868048734,-31,-4,-1,-10,-13,-1,-1,-6
52868048734,6,-1,-1,1,3,0,1,-1
52868059941,-14,-1,2,13,11,1,-2,-2
52868059941,5,4,-4,-12,-18,-3,-1,1
52868060726,9,-2,9,-6,-2,-2,-3,0
52868060726,-4,-2,-4,-8,-6,0,-1,-2
52868066351,2,-7,-16,-5,-7,-4,-5,-3
52868066351,-3,-1,6,4,5,2,0,-1
52868073598,1,-5,-7,2,0,0,-1,-1
52868073598,4,3,6,-4,-8,-1,-2,0
52868088594,1,-2,6,-9,-11,-2,0,-2
52868088594,-7,-6,-10,6,16,-1,-3,-4
52868096093,-3,1,4,-2,-6,-3,-4,-3
52868096093,7,0,-2,1,1,2,4,0
52868105057,-1,0,-1,-3,-8,1,-1,-2
52868105057,-9,-2,-3,-1,-7,-2,-2,-3
52868135594,6,0,2,1,-1,-3,-1,3
52868135594,3,-1,-3,5,10,6,1,0
52868137124,-6,-4,-4,-3,-3,-3,-3,-3
52868137124,-2,-4,-2,2,-14,0,-1,-2
52868137969,3,3,-5,-8,-1,0,-1,-1
52868137969,1,1,4,3,3,-5,-1,-1
52868148541,7,-1,3,5,15,4,2,0
52868148541,-20,-7,0,12,19,-5,-11,-6
52868156087,0,-2,-7,20,16,-2,2,-3
52868156087,-3,1,-2,-23,-33,-5,-20,-5
52868171044,8,9,9,-3,2,-8,32,3
52868171044,2,-6,-14,-20,-44,-18,-58,-24
52868179263,3,-1,-5,-19,36,5,18,52
52868179263,-2,-4,-1,25,-2,6,9,0
52868186060,1,7,27,27,18,5,3,3
52868186060,1,-3,-22,-5,4,7,4,3
52868193593,-3,0,5,10,16,2,-8,-16
52868193593,2,-3,-6,-17,-12,-3,-7,-4
52868208600,-2,5,5,-6,-69,-26,-12,6
52868208600,-3,-2,11,4,31,11,16,-1
52868216067,4,-2,-5,-7,-14,-13,-12,-10
52868216067,0,-1,-5,2,36,19,14,5
52868225002,-8,-4,-4,0,-10,1,-9,-10
52868225002,0,1,3,-9,-13,-7,8,3
52868239265,2,2,-1,-1,-22,-2,4,-8
52868239265,-1,1,0,-1,-6,-8,-7,-2
52868246096,-4,-3,-7,-3,17,4,-5,-3
52868246096,3,3,2,1,-3,1,7,5
52868261769,-5,-5,-1,0,3,7,-3,-4
52868261769,-4,-2,-1,1,-4,-12,1,-3
52868268546,-2,3,4,-3,12,6,-5,1
52868268546,-4,-5,-6,-1,6,0,7,2
52868276097,-4,0,-7,0,-16,-4,-4,-10
52868276097,2,0,16,5,7,1,0,2
52868285057,5,17,11,-6,2,3,3,3
52868285057,-8,-30,4,-7,-3,-3,0,-1
52868307452,0,-1,0,-1,8,3,-3,-1
52868307452,0,-1,-7,-6,-6,-7,-3,0
52868309022,-1,-4,-5,-2,7,2,-3,1
52868309022,9,20,29,6,-6,2,5,3
52868313531,-5,-14,-41,-8,-6,-4,-5,-2
52868313531,3,4,14,10,15,1,1,-1
52868328554,-5,-13,-27,-14,-7,-1,-5,-4
52868328554,2,1,-4,-3,-5,0,3,0
52868336039,2,-1,4,-2,-11,-1,2,-3
52868336039,0,1,-6,0,-4,-1,0,-3
52868368545,-4,-6,0,0,2,2,-2,-2
52868368545,1,4,-2,-1,0,1,0,0
52868369366,2,4,7,2,0,3,1,-1
52868369366,-2,0,5,-2,1,-2,-1,-1
52868374229,-2,-5,0,-1,0,-2,-3,0
52868374229,-2,0,-1,0,10,1,1,0
52868375022,0,5,8,4,-14,-3,-2,-1
52868375022,-2,-3,-5,-4,-8,-4,-1,-3
52868390056,-4,-6,-12,-3,-1,-4,-1,-1
52868390056,1,4,-1,2,4,4,2,0
52868396058,-3,0,7,1,6,-1,0,-2
52868396058,-1,-4,-4,-1,-2,-2,-1,0
52868411018,-1,-2,-9,-4,8,2,0,-1
52868411018,1,3,8,-1,-19,-8,-2,-1
52868419644,-1,-1,-6,3,8,-1,-1,-1
52868419644,0,-3,-15,-8,-6,-1,1,0
52868427572,-4,-3,-3,0,6,1,-1,-1
52868427572,-3,-1,-7,-7,-14,-3,-1,0
52868433514,-1,0,4,0,1,0,-2,0
52868433514,-2,1,-1,1,2,1,0,0
52868450028,0,-2,-3,2,2,2,-1,-2
52868450028,-3,-2,-4,2,6,0,0,0
52868456136,1,3,12,-3,-7,-3,-1,-1
52868456136,-2,-9,-14,0,2,1,0,-3
52868471005,-1,3,5,0,-7,-4,-1,-3
52868471005,0,2,-1,1,6,2,0,-1
52868479265,-1,-1,1,2,-1,-1,-1,-2
52868479265,0,0,-1,-3,-1,-2,-2,-1
52868486019,0,-4,-4,-1,-2,-2,-2,-1
52868486019,2,4,9,3,-1,-1,-1,-2
52868493537,1,0,-6,-4,11,1,0,-1
52868493537,0,0,9,-1,-21,-1,-1,0
52868508542,-1,-5,-14,-2,-3,-2,-1,-1
52868508542,-1,3,9,2,5,0,0,1
52868516778,1,-2,-9,-3,0,0,-1,0
52868516778,-1,1,14,0,-20,-3,-1,0
52868531048,-4,0,-4,0,15,1,-1,-3
52868531048,-4,-5,-6,-2,0,-2,0,-1
52868539281,-2,-4,-1,0,-6,-2,0,0
52868539281,0,-1,-6,-2,7,0,0,-1
52868546047,1,0,4,1,-9,-1,-1,1
52868546047,1,-2,-4,-1,-4,-1,-2,-1
52868553564,-3,-4,-3,0,6,-2,-1,-4
52868553564,-3,-2,-3,0,-1,-1,-1,-4
52868568534,1,-1,5,-2,-2,-1,-1,1
52868568534,1,-2,-8,-3,0,-1,0,-1
52868576738,0,2,4,-2,-7,-1,-2,1
52868576738,-3,1,-1,2,7,0,-2,0
52868599919,-2,-3,0,-2,-2,1,-1,0
52868599919,-1,1,2,-2,1,0,-2,0
52868600694,1,0,2,-1,-5,-2,-2,-3
52868600694,0,-1,-4,-2,4,0,-1,-2
52868606047,0,-1,-2,-1,-1,0,-3,-2
52868606047,0,-1,0,3,0,1,-2,-1
52868613562,-1,0,0,-1,-3,2,-1,-1
52868613562,-2,-7,-6,-5,2,-2,0,0
52868628536,-1,-2,4,-1,-4,-2,0,-2
52868628536,0,0,-5,-1,2,-2,-2,-2
52868636702,0,0,5,1,-2,-1,-2,0
52868636702,2,-1,1,0,1,-1,-1,1
52868659676,0,2,-7,-5,-1,-1,1,-2
52868659676,-2,-4,-4,-2,1,-2,1,-1
52868660435,-5,-2,5,1,-8,-4,0,-1
52868660435,3,2,4,5,5,4,0,1
52868667574,-1,2,8,2,-2,-6,-2,1
52868667574,-3,-4,-14,-4,-4,3,0,0
52868681462,1,-4,-6,-4,-1,-2,-1,-1
52868681462,-4,-3,-3,-3,3,-2,0,0
52868690069,-1,1,4,-3,-27,-1,-1,0
52868690069,-1,2,0,4,23,-1,-2,0
52868704258,0,2,-1,2,0,-2,-1,0
52868704258,-1,-3,3,-1,-2,-4,-3,-4
52868711130,-1,-4,-3,-1,5,1,-1,-3
52868711130,2,0,1,-2,-13,-1,-2,-2
52868719235,-2,-2,0,-1,-1,-1,0,-1
52868719235,0,2,1,-3,0,-1,-2,0
52868726014,2,-3,-3,0,3,1,1,-1
52868726014,0,-5,-3,-2,-2,-2,-2,-2
52868742530,0,0,1,0,3,0,0,-1
52868742530,-1,0,3,-2,-6,-1,0,-1
52868748598,-2,-3,-9,-3,4,2,-2,0
52868748598,-2,0,0,0,-2,-1,-1,0
52868771727,-1,1,6,0,-13,-1,0,0
52868771727,0,3,5,-1,5,-3,-1,-1
52868772588,0,-2,-8,-3,-2,0,1,-1
52868772588,0,-1,-1,-2,4,-4,0,-2
52868780034,0,-2,-4,-1,-3,-1,-2,-1
52868780034,1,-1,-2,1,1,-1,-1,-1
52868786102,-3,-2,0,-1,-1,-3,-2,-1
52868786102,-4,1,-1,-1,-11,-1,0,1
52868818027,-2,0,4,2,2,-1,1,-1
52868818027,-4,-1,-2,-3,-10,-2,-3,-3
52868818840,-2,-2,-12,0,4,-1,-2,0
52868818840,-1,1,5,-1,-1,1,1,1
52868820434,1,3,2,-2,5,2,1,0
52868820434,-2,-3,-10,-3,0,-1,-1,-2
52868831021,-3,1,2,2,-6,-3,-1,-1
52868831021,-3,-4,3,-5,-3,-2,-1,-2
52868840058,-1,-6,-10,-2,0,0,-2,-1
52868840058,1,-2,0,-2,-2,0,-1,-1
52868846041,1,2,13,5,4,2,-2,-3
52868846041,-1,2,-6,-2,0,-1,1,1
52868862518,-1,-3,-2,-2,-1,0,-1,-2
52868862518,-1,-1,-1,0,-1,0,2,0
52868877382,0,-3,-3,-1,1,-1,1,-1
52868877382,0,-1,-5,-2,-3,-2,0,0
52868878989,-1,1,3,-2,-2,-3,-1,1
52868878989,1,2,-4,0,0,-2,-1,0
52868891104,-1,-4,1,-1,0,-3,-2,-1
52868891104,-1,-1,1,2,-2,-1,-3,0
52868906670,-1,0,-2,-2,8,-1,-1,-1
52868906670,-5,0,1,3,2,-1,-1,0
52868907446,-3,-2,-4,-4,3,-2,-1,-2
52868907446,0,-1,3,-1,0,0,-2,-1
52868922843,1,2,2,3,7,0,-1,-1
52868922843,-1,-1,3,-3,-16,-3,-1,0
52868928534,0,-2,-3,-4,-4,-2,0,-1
52868928534,-3,-2,-6,-3,-11,0,-1,-1
52868938248,-1,-4,-2,2,23,1,-2,-1
52868938248,2,0,1,0,2,0,-1,-1
52868951049,-1,-3,-17,-3,0,-1,-2,-1
52868951049,-1,-1,8,1,-2,-3,0,-2
52868959986,-2,-5,-18,-5,-12,-1,-1,-2
52868959986,-1,0,1,-2,0,-1,-1,-1
52868966044,2,3,11,-1,2,2,-1,-1
52868966044,1,0,-8,-1,3,-1,-1,-3
52868982491,-1,1,4,0,-4,0,0,0
52868982491,-3,-3,-12,-1,3,-2,0,-1
52868997975,-3,-2,4,2,-3,-2,0,0
52868997975,-1,0,3,-3,5,-1,0,0
52868999648,1,-2,-3,-1,-2,0,-3,-2
52868999648,1,-1,-1,0,-2,-1,-2,-2
52869010999,-2,-2,2,-1,2,-1,0,-1
52869010999,0,1,-2,3,-1,-1,-1,1
52869027499,-1,2,4,-4,-7,-1,1,1
52869027499,-1,-2,-8,0,2,2,-1,2
52869033481,-1,-4,-16,-5,-6,-1,-1,-1
52869033481,-2,-3,-2,1,4,-1,-1,-1
52869049977,1,-3,1,-2,-11,-2,-1,-2
52869049977,0,-1,0,1,1,-1,-1,-1
52869063946,0,2,5,-1,-4,1,-1,-1
52869063946,0,1,8,0,1,-2,-1,-1
52869073182,-3,-2,-12,-1,1,-1,-2,1
52869073182,-3,0,2,-2,-3,0,-2,-3
52869073946,-2,1,-5,-3,3,-1,-1,-1
52869073946,0,-2,-1,-1,-3,-1,-1,-2
52869085997,-1,0,0,1,-3,-1,-1,-1
52869085997,-1,-3,-1,0,-1,-1,0,0
52869093555,-1,0,0,-1,0,0,-1,0
52869093555,-1,0,4,2,1,0,-2,-1
52869102511,-4,-2,-2,-2,-1,-1,-2,0
52869102511,-1,-2,-10,-4,0,-1,0,-1
52869117869,-3,-3,0,-1,-10,-2,-1,0
52869117869,-1,-2,-6,-1,-6,-1,-1,-1
52869119436,0,-2,3,0,11,-3,-1,-2
52869119436,1,3,13,0,3,2,0,0
52869131022,0,-2,-9,-2,1,0,-1,0
52869131022,0,-1,-6,-1,-3,-2,-1,0
52869139977,-2,0,2,0,0,-1,1,0
52869139977,0,-1,-2,-4,-11,-2,-1,0
52869153557,2,0,3,0,4,0,-2,-1
52869153557,-2,-1,-1,0,-4,0,0,-2
52869162561,-1,3,11,0,2,-1,-1,-2
52869162561,-3,-13,-35,-7,-2,0,-2,-1
52869177446,-1,1,5,2,1,-2,-1,0
52869177446,-1,-2,-1,-1,2,-1,-2,-2
52869178990,1,0,0,0,-4,-1,0,-3
52869178990,-4,1,18,-1,1,0,-1,-3
52869191008,-3,-7,-18,-6,0,-2,-2,-2
52869191008,1,-3,-13,-4,0,-2,0,0
52869200039,-2,-3,-1,0,-8,-3,-1,0
52869200039,-1,2,8,2,0,-2,-2,0
52869213531,0,0,7,-1,2,0,-1,-1
52869213531,-1,3,5,0,0,-1,-2,0
52869222521,-4,-4,-6,-2,-4,0,0,1
52869222521,0,0,-4,0,-3,-1,-1,-1
52869237371,-1,0,6,1,16,2,1,-3
52869237371,2,-1,5,-2,-10,-2,2,-3
52869238997,-1,-1,-9,-3,-8,-2,0,-2
52869238997,-3,-3,-7,-2,2,-1,-1,-1
52869259902,0,1,3,2,-4,-2,0,-1
52869259902,0,-1,-1,0,1,-1,-1,0
52869261470,-1,-1,6,-4,0,0,0,-1
52869261470,-1,0,-7,-1,-1,-1,0,-1
52869273987,-2,-4,-3,-2,-3,-1,-2,-3
52869273987,-3,-1,1,0,1,0,0,-2
52869283033,2,-1,0,0,-3,0,-2,2
52869283033,-1,2,2,2,-1,-4,-3,-1
52869297383,0,3,4,1,-1,0,-1,2
52869297383,-2,-2,2,1,0,1,-1,0
52869298948,0,-3,-14,-7,2,-1,-1,-1
52869298948,2,2,7,0,-1,0,1,0
52869311046,-2,-5,-14,-3,-5,-2,-1,-2
52869311046,-2,0,4,0,-2,-2,-1,-2
52869327547,-2,-2,-11,1,-2,0,-3,0
52869327547,0,-2,-1,-1,-6,-1,-3,-1
52869333533,-1,4,9,2,-4,0,1,-1
52869333533,0,-6,-12,-5,-2,0,-1,1
52869342482,0,0,5,2,-1,-1,-1,-2
52869342482,-1,-6,-4,-1,0,0,0,0
52869365162,-2,-1,6,0,0,0,-1,0
52869365162,1,-1,-5,-2,0,0,-1,-1
52869366487,0,2,1,1,-2,0,-1,0
52869366487,-1,4,7,0,-3,0,-1,-3
52869370976,-1,-2,-4,1,4,-2,-3,-2
52869370976,-4,1,3,1,1,-1,0,-1
52869387506,-2,-5,-15,-4,-3,-2,-2,-1
52869387506,-1,1,3,1,2,1,-1,-1
52869393490,1,2,2,-2,-4,-2,0,-1
52869393490,0,-2,6,0,0,-2,-1,-2
52869402533,-3,-1,-5,-1,-1,-1,-1,-3
52869402533,-1,-3,-2,0,5,1,0,-1
52869417390,-2,-3,-3,-4,-5,0,0,1
52869417390,-2,0,-5,-1,0,0,-1,-1
52869418966,-2,0,5,1,-2,0,0,-1
52869418966,2,-1,-6,-1,1,-2,-1,-2
52869431445,0,3,4,1,5,-1,-1,-1
52869431445,-3,0,1,0,-12,-1,-1,0
52869439995,-2,-2,1,-3,-6,-1,-3,-1
52869439995,-4,-4,-10,-1,1,-2,-2,1
52869453569,1,0,0,0,-9,-2,-1,0
52869453569,-1,1,-1,-1,10,-2,-1,-1
52869462497,2,3,11,1,1,-1,1,1
52869462497,-2,-4,-8,-3,0,-2,1,-2
52869477449,-3,-7,-7,-2,-4,-2,-2,-2
52869477449,-2,-2,-5,-1,-3,0,-1,0
52869478974,0,-2,2,-1,0,0,-1,0
52869478974,1,3,10,2,2,-1,-1,-1
52869491041,0,0,-2,0,-1,-1,-1,-1
52869491041,1,-1,2,-1,-1,0,-1,0
52869499987,-1,0,0,-1,1,0,-1,0
52869499987,0,-1,-1,-3,-2,0,-2,0
52869513497,-1,-1,-3,0,-4,-4,-2,-1
52869513497,-2,0,3,-2,4,3,-1,-2
52869522520,-1,0,-1,0,-2,0,2,-3
52869522520,-1,1,5,1,-2,0,0,-2
52869544845,-1,-1,-1,-1,-7,1,0,-1
52869544845,-3,-7,-17,-4,9,-3,-2,-1
52869546477,-1,2,-3,-3,0,0,-1,0
52869546477,-4,-3,3,1,-3,-2,0,0
52869551027,-2,0,11,0,-1,-2,-1,-2
52869551027,1,-1,-2,-1,-4,0,0,-2
52869559982,-4,-3,-5,-2,-1,-1,-2,0
52869559982,1,3,0,0,4,-3,0,0
52869573530,-1,-2,-9,-3,-3,1,0,-1
52869573530,2,0,-5,-3,-2,-2,0,0
52869582498,1,0,1,1,4,-2,-1,0
52869582498,-3,-4,-2,-2,-3,-1,-1,-3
52869596481,-3,-1,7,2,4,0,-1,-3
52869596481,-1,4,14,-3,-4,-3,-2,-1
