timestamp,emg1,emg2,emg3,emg4,emg5,emg6,emg7,emg8
68018341226,-1,-2,-2,-2,-2,-2,-3,-1
68018341226,-3,-1,0,2,3,3,6,-1
68018341933,-1,-1,0,-1,-2,-1,-4,0
68018341933,-3,-2,-3,-2,-3,-3,0,-1
68018342891,0,1,0,-1,-2,-1,-4,0
68018342891,-1,-1,-1,-1,0,-1,-7,-3
68018343531,0,-2,-2,-2,-4,-5,5,0
68018343531,-1,-2,6,3,3,2,1,-2
68018354880,-1,0,-9,-4,0,-1,4,1
68018354880,1,0,-2,-1,-2,-3,-3,1
68018362972,-4,-2,-1,0,0,0,-7,-3
68018362972,0,0,-3,-2,-4,-3,1,-1
68018369806,-1,2,2,1,1,-1,4,-3
68018369806,1,-1,-1,0,-1,-1,-6,0
68018384322,1,-2,-1,0,-1,-2,1,-1
68018384322,-1,1,1,1,1,0,3,-1
68018393716,-1,-5,-2,-1,-2,-2,-7,-1
68018393716,-2,-2,-3,-3,-5,-2,-1,-1
68018399325,0,1,1,1,2,1,4,-1
68018399325,0,-2,-1,0,-1,-1,-8,-2
68018415110,-1,-2,1,0,0,0,0,-2
68018415110,0,-2,1,1,1,-2,6,1
68018422951,1,1,-1,-3,-2,1,-4,-1
68018422951,0,-2,-1,0,-1,-3,7,0
68018463237,-2,-2,0,-1,-1,-3,-6,-1
68018463237,-2,2,-1,-1,-1,0,-1,-1
68018464087,-2,-2,-2,-2,-3,-4,-7,0
68018464087,-2,-1,1,2,0,0,10,-1
68018467101,0,-1,0,-2,-1,1,-2,0
68018467101,-3,-4,-2,-1,-2,-3,-3,-3
68018468013,0,1,1,-2,-3,0,4,-3
68018468013,0,0,1,-1,-3,-4,-9,-2
68018475457,-1,-1,1,2,1,1,2,0
68018475457,-2,-2,0,-5,0,1,0,-1
68018481477,0,0,0,1,1,1,0,-1
68018481477,0,-1,-1,0,1,0,-3,1
68018498037,-1,-2,0,-1,-2,-2,0,-1
68018498037,-1,1,-6,-3,-2,0,-2,-1
68018504027,0,-6,-3,0,3,-1,-2,1
68018504027,0,1,-3,-1,-1,-2,-5,-3
68018513031,-2,0,-1,-1,-2,-2,2,2
68018513031,-1,-1,2,2,0,-1,0,0
68018526635,-1,0,-1,-1,-3,-1,-1,-1
68018526635,-1,-2,-2,1,-1,-1,-5,-2
68018535443,-2,-3,-4,-1,2,0,-1,0
68018535443,-1,-2,0,-2,-3,-4,-1,-1
68018541574,-3,-1,-1,1,2,4,7,-1
68018541574,-1,-1,-2,-4,-1,-3,-7,-1
68018556439,-1,2,3,4,-1,-2,-6,-1
68018556439,0,-1,-13,-11,-2,-1,2,0
68018564140,-2,1,2,2,0,0,-2,-1
68018564140,-1,-1,-2,-1,-2,-2,1,-2
68018572978,-1,-2,-1,-3,-2,-4,-7,-5
68018572978,2,2,4,3,1,2,7,0
68018586638,0,-2,-2,-1,-3,-1,-5,-1
68018586638,-1,-1,-3,-3,-1,1,2,0
68018595513,0,-2,-2,0,-2,0,0,-1
68018595513,-2,0,4,2,0,-1,-3,-1
68018601525,-2,-2,-2,-5,-4,-5,-6,-3
68018601525,-2,-2,2,1,1,0,8,0
68018616599,0,0,-2,0,1,2,5,0
68018616599,-1,2,3,2,0,0,-2,-1
68018624074,-2,0,2,2,3,3,3,0
68018624074,-1,-3,0,-2,-3,-3,-5,0
68018632993,-1,-3,-9,-3,0,0,-5,-3
68018632993,-1,2,4,-1,-5,-3,-4,-2
68018646431,0,-3,-1,-2,-3,1,10,2
68018646431,-2,-3,2,0,-1,2,-3,-2
68018655490,-1,3,1,-2,-1,-3,-1,2
68018655490,0,-1,1,0,-3,-4,-4,-2
68018661719,-2,-3,-5,-1,-2,-2,-4,-2
68018661719,0,0,-3,-4,-3,-1,3,0
68018676630,-3,-1,1,1,2,0,0,-1
68018676630,-1,-5,-1,2,2,4,0,2
68018684124,0,2,-2,-2,-3,-6,-3,-3
68018684124,-3,-1,-3,-2,-2,-1,2,-1
68018692908,-2,-1,-1,-2,-2,-1,-4,-1
68018692908,-2,-3,1,2,-1,-2,5,-1
68018706539,0,-2,-1,-3,0,-1,2,-1
68018706539,-1,-1,-1,1,1,2,-1,-1
68018715409,2,2,0,-4,-6,-5,-4,-2
68018715409,-1,-3,-3,-1,2,-3,1,-3
68018721658,-1,0,0,0,0,0,-1,0
68018721658,-2,0,-2,-4,-5,-2,-3,-2
68018736677,-2,-2,-1,1,2,2,2,-2
68018736677,-2,-2,-1,-1,0,0,1,0
68018744133,-1,-2,2,-1,-3,-5,-9,-1
68018744133,-2,-2,-12,-2,0,-3,-5,-2
68018752971,-1,-4,-3,-4,-4,1,4,0
68018752971,-2,1,0,-2,-2,-3,-3,-1
68018766453,0,1,1,3,1,1,2,0
68018766453,1,1,2,2,-1,-2,1,-1
68018775473,-1,-2,-1,0,-1,-2,-3,-3
68018775473,-1,-2,-5,-5,-4,-3,-6,-2
68018781560,1,1,1,-2,-1,-2,2,-1
68018781560,-3,-2,1,0,-1,-1,0,2
68018796352,-1,-2,-2,-2,-1,-3,1,-4
68018796352,0,-2,0,0,-1,0,-6,-1
68018803909,0,2,2,0,-2,0,1,-1
68018803909,1,-1,-1,4,1,1,5,1
68018813095,-1,-2,0,-2,-2,-2,-2,0
68018813095,-2,0,-1,-2,-4,-2,-3,-3
68018826645,-3,-6,-2,-1,0,1,-1,0
68018826645,2,3,5,2,1,-1,2,0
68018835456,-1,0,0,-1,1,2,-3,0
68018835456,0,-3,-2,0,0,1,1,0
68018841558,-2,1,0,-3,-4,-6,-3,-2
68018841558,-1,-1,0,-1,1,1,-2,-3
68018856603,0,-3,0,1,-4,-3,-1,-1
68018856603,0,2,3,-2,0,-1,3,1
68018864093,-1,0,-7,-5,-2,-4,-15,-1
68018864093,-1,-1,2,-2,-6,0,16,0
68018873034,-1,0,-1,0,3,1,-2,0
68018873034,1,-1,3,2,0,0,1,-1
68018886437,-2,0,0,2,2,0,1,0
68018886437,-3,-1,-2,-3,-2,-1,-6,-1
68018895460,-1,-2,-1,-1,-2,-1,1,-2
68018895460,-1,0,-2,2,0,-2,-1,-1
68018901448,0,-1,-2,-4,-4,-2,-2,-1
68018901448,-2,-5,-4,-2,-1,-2,-6,-1
68018916430,-2,-2,2,0,-3,-2,-1,-2
68018916430,-1,-2,-5,-1,-1,-1,-4,1
68018924003,0,-1,1,1,1,3,4,-1
68018924003,-1,-2,-1,-4,1,2,-2,0
68018932976,-2,1,1,-1,-2,-3,-2,0
68018932976,-1,-3,-2,1,2,-3,-4,-3
68018946663,0,-1,-2,0,-2,-1,5,0
68018946663,-1,-1,-2,0,3,1,-1,-2
68018955582,0,2,-3,-1,-1,-1,-3,-2
68018955582,-2,-1,-2,-2,-3,1,11,1
68018961645,-1,-4,-2,0,-2,-1,-6,0
68018961645,-1,1,4,1,-2,-1,-4,1
68018976672,-1,-2,-14,-4,0,1,0,0
68018976672,-2,-2,2,-2,-1,1,0,-2
68018984085,0,1,3,0,-1,-3,-3,-3
68018984085,0,0,1,1,-2,-1,-1,-2
68018992989,-1,-1,3,7,-3,-2,-5,1
68018992989,3,-1,-5,-3,0,-2,-2,0
68019006626,-1,3,0,1,1,-2,-4,-1
68019006626,-1,-2,0,-2,1,-1,0,0
68019015464,-1,-1,1,0,1,0,3,1
68019015464,-2,-1,-1,2,-2,-1,-3,1
68019021621,-5,-3,-10,-14,-2,-1,-1,-5
68019021621,7,2,2,-2,-2,-3,-5,-1
68019036577,0,1,7,11,1,-1,0,-2
68019036577,-11,-1,-5,-9,-3,-2,-1,-1
68019044124,-10,0,3,13,4,5,5,4
68019044124,10,-1,1,-5,-2,-3,-4,-2
68019052940,1,-1,15,19,3,2,3,-2
68019052940,17,-3,-15,-18,-3,-2,-6,1
68019066675,-13,-10,0,4,0,-2,0,0
68019066675,-5,6,7,11,1,-1,-2,-1
68019075394,-14,-3,-25,-36,-9,-4,-8,-8
68019075394,28,-1,1,7,4,1,11,11
68019081424,-4,3,6,4,-1,-4,-10,2
68019081424,-4,-2,0,1,-4,-2,0,-20
68019096521,13,5,-2,-1,2,0,-1,-10
68019096521,-16,0,0,2,1,1,1,-4
68019103951,2,-3,-15,-15,-3,2,2,1
68019103951,3,0,17,21,1,-2,-3,4
68019112950,-7,-2,-10,-13,-4,-5,1,2
68019112950,-5,-6,8,6,-2,-1,-5,-4
68019126648,17,5,15,11,1,-2,3,-1
68019126648,-16,-6,-16,-26,-7,-2,-3,4
68019135536,3,1,-3,4,2,3,3,3
68019135536,-8,3,6,9,4,-1,-4,1
68019141495,1,-1,-1,-6,-3,-3,-3,-3
68019141495,3,1,-1,-5,0,0,2,3
68019156601,2,0,13,9,1,1,0,6
68019156601,-9,-4,-11,4,-4,-5,-7,-10
68019164108,3,6,-4,-1,-2,0,1,-3
68019164108,-10,-1,-4,-3,-1,-2,-2,-1
68019172957,6,-4,-10,-11,-5,-1,-1,-1
68019172957,11,3,20,7,-2,-1,-1,3
68019186618,-8,-6,-5,-1,-1,0,0,-1
68019186618,5,-1,-15,-10,-1,1,-1,2
68019195461,-20,-2,3,3,0,0,-2,-3
68019195461,-4,1,-8,-7,-5,-3,-4,-2
68019201448,2,-1,6,5,-2,-2,-3,-4
68019201448,-4,-3,-1,-6,-3,-1,1,12
68019216644,3,4,-1,-5,-1,-1,0,-3
68019216644,-12,-6,8,3,1,3,-1,-18
68019224159,3,-1,-7,-5,2,1,3,6
68019224159,3,-2,-9,-3,-2,-1,-4,-9
68019232953,-7,-2,4,-1,-3,-1,-1,-1
68019232953,4,2,2,5,3,2,0,7
68019246614,-2,-4,3,0,-4,-4,-3,-3
68019246614,1,3,-7,1,-2,-1,0,-3
68019255403,8,-2,-2,-7,-3,-1,0,6
68019255403,-7,-2,4,0,0,0,-1,-3
68019269753,-3,-2,-9,-9,-3,-2,0,-1
68019269753,1,1,-11,-8,0,1,0,3
68019276607,7,1,-4,3,4,2,1,-1
68019276607,-2,-4,18,6,-3,-2,-3,0
68019292929,2,-1,0,-1,-1,-2,-2,-1
68019292929,-6,-5,-7,-5,-2,-2,0,-2
68019294409,-1,1,1,1,-1,-3,-2,-2
68019294409,1,0,-2,-4,0,0,0,0
68019306623,-3,-3,-6,-7,-4,-3,-3,0
68019306623,5,0,9,5,2,1,-2,0
68019315487,-4,-3,-1,1,0,-1,-2,1
68019315487,1,-4,-6,-9,-4,-3,-3,0
68019329670,0,1,1,3,-1,1,-1,-1
68019329670,-7,-4,1,1,1,0,8,-2
68019336613,0,-4,-3,-1,-2,-3,-2,-2
68019336613,-13,3,-10,-4,2,1,-4,-1
68019343965,20,1,3,2,-1,-1,-2,6
68019343965,2,1,4,6,-2,-2,-5,-4
68019352955,2,-3,-12,-4,-1,-1,1,0
68019352955,-8,1,-7,-6,-2,-1,-1,0
68019366485,-3,-2,-3,-8,-1,1,0,2
68019366485,2,1,13,14,-1,-2,-3,0
68019375416,-6,-2,-1,-8,-3,-2,0,-4
68019375416,5,-2,-2,0,-1,-2,-3,2
68019389834,0,2,-1,2,3,3,3,-2
68019389834,-4,-3,-7,-7,1,0,-1,3
68019396463,3,-1,3,3,-2,0,-3,-8
68019396463,-12,-2,-1,0,0,-1,-1,-1
68019404118,-3,0,-9,-7,0,-1,1,-2
68019404118,-2,-4,6,-1,-2,-2,-4,-4
68019412963,0,0,6,4,0,-3,-2,3
68019412963,6,1,-1,2,-1,-1,0,-1
68019426596,-5,-1,-2,1,0,2,-1,-4
68019426596,-4,1,1,2,-3,-3,-3,-1
68019435427,-1,-1,8,12,4,0,0,0
68019435427,7,-2,-15,-10,-6,-4,-2,-1
68019449831,-8,-3,-2,-4,-5,-3,0,-1
68019449831,4,-2,-5,7,4,0,-1,-5
68019456569,-6,-1,10,0,-4,-4,-3,-1
68019456569,2,0,-10,-15,-4,-4,-2,-2
68019472972,-1,-1,0,4,-4,-3,-2,-1
68019472972,-2,-2,-2,4,1,2,-2,0
68019474439,0,0,-5,-11,-3,-3,1,0
68019474439,1,-3,4,10,9,2,2,1
68019486474,-1,-3,-3,-4,-5,-4,-3,-4
68019486474,-7,-1,-1,-9,-2,-2,-1,-3
68019495388,8,-2,-4,1,-3,0,-1,1
68019495388,0,-2,-7,-6,-4,1,1,0
68019509785,-1,0,5,2,6,1,2,-2
68019509785,4,3,6,6,0,0,0,2
68019516600,-4,0,-12,-5,-6,-2,-3,-1
68019516600,-3,1,9,-1,2,-1,-1,-4
68019533015,-3,-11,-21,11,17,5,1,-1
68019533015,-3,1,10,-13,-15,-8,-3,-1
68019534416,0,1,-2,14,34,13,-1,1
68019534416,1,0,3,-4,-6,-1,9,1
68019546560,-5,0,0,-3,-4,-4,-4,-2
68019546560,2,-4,-8,-10,-5,-2,-1,0
68019555474,-3,-3,2,-2,-4,0,1,-2
68019555474,0,3,-4,4,5,3,-3,-2
68019569875,-1,1,3,-1,2,-1,-1,0
68019569875,1,-2,-3,-1,2,-1,-2,0
68019576599,-1,0,7,-2,-10,-5,-3,-3
68019576599,0,-1,-11,-6,-1,0,0,0
68019592204,-1,1,4,-4,-12,-5,-2,-2
68019592204,0,-3,-1,-2,0,3,-1,-1
68019599126,-2,-2,-3,2,-2,-1,-3,-1
68019599126,-1,-3,2,-6,-9,-3,-2,-1
68019606572,-1,0,4,7,13,2,-3,0
68019606572,-1,3,-7,0,1,-2,-1,-3
68019615416,-3,-2,-1,-5,-7,-5,0,0
68019615416,0,-2,-3,4,4,5,4,0
68019629624,-1,-2,2,-4,-6,-3,-3,0
68019629624,-2,-2,-2,5,3,0,0,-3
68019636636,0,1,-3,-6,-7,-4,-2,0
68019636636,-1,-2,2,4,-1,-2,-4,-3
68019652392,-2,-1,-1,-3,-4,-1,3,-2
68019652392,-1,-3,-1,1,1,0,2,-1
68019658981,0,0,1,0,-3,-1,0,-1
68019658981,0,0,-3,-1,-1,-2,-3,-2
68019666555,1,0,0,-4,-2,0,0,-1
68019666555,-2,-1,0,0,-3,1,-1,2
68019675494,-2,-3,-3,-3,-2,-1,1,-1
68019675494,0,0,0,2,0,-1,-1,-1
68019689875,-1,1,0,-5,-5,-2,-2,-1
68019689875,0,-4,-2,1,2,3,-1,1
68019696529,-2,0,-2,-3,0,1,0,-1
68019696529,-1,-2,-1,-2,-2,-2,-2,-1
68019712301,-2,-2,4,2,-1,-1,0,-1
68019712301,1,-1,-8,-3,1,-1,0,-1
68019719085,-1,0,1,0,0,0,-1,-1
68019719085,1,-2,2,4,-2,-3,-3,0
68019726617,-1,0,-2,-3,-1,0,0,0
68019726617,-1,1,-2,0,1,0,-1,0
68019735479,0,-3,-3,-1,-3,-3,-1,-2
68019735479,-3,-1,-1,-1,0,0,-1,-1
68019749578,0,-2,-1,0,-3,-1,-2,-1
68019749578,-1,0,1,-1,-1,-1,-2,1
68019756359,-1,-2,-3,-2,-1,0,-1,0
68019756359,0,0,-2,-2,-1,0,-1,1
68019772101,-1,-1,-1,0,1,-1,0,-1
68019772101,-2,-3,-1,-7,-4,-3,-2,-1
68019778888,-1,-2,-10,-2,1,1,0,0
68019778888,-3,-1,-4,-3,1,-1,0,-1
68019795261,-1,-2,-2,0,-3,-2,-1,-1
68019795261,0,-2,-1,1,-1,-2,-2,-1
68019796883,0,0,4,1,-3,-1,0,-1
68019796883,0,-1,-3,-3,-2,0,-2,-1
68019809568,-2,-1,-1,-1,-3,-2,-1,0
68019809568,-1,-1,0,0,0,-2,-1,-3
68019816372,-1,0,0,-2,-2,-1,-2,0
68019816372,-1,0,3,-1,-3,-1,-1,-2
68019832090,0,-1,0,0,0,1,1,0
68019832090,-1,-1,-1,-4,-1,-2,-1,-1
68019838989,0,-1,-1,1,-2,0,-1,1
68019838989,-1,-1,-2,-4,-2,-1,-1,0
68019855253,-1,-2,-3,-1,-1,0,-1,1
68019855253,-2,-2,-3,3,1,1,0,0
68019856816,-1,-2,0,-3,-2,-2,-1,-3
68019856816,0,0,0,-1,-1,-2,-2,-2
68019869642,-2,0,-1,-2,0,0,-1,-2
68019869642,-1,1,-2,0,0,-2,-2,0
68019876464,-1,-1,1,-1,2,0,1,0
68019876464,-1,-1,3,3,-1,0,0,-1
68019892124,0,0,-5,-4,-2,-2,-2,-1
68019892124,0,-1,0,0,-1,1,-1,-2
68019898892,-1,-3,-2,-2,-3,-1,-2,-2
68019898892,-1,-1,4,4,-2,-3,0,-2
68019915466,-1,0,-4,-8,-1,0,0,0
68019915466,0,-1,-2,0,0,1,2,1
68019916922,-1,-2,-2,0,0,-1,-1,-2
68019916922,0,-2,-1,0,-2,1,-2,0
68019929834,-1,-3,1,1,-2,0,-3,-3
68019929834,0,1,1,-3,-2,-1,-2,-3
68019936690,-2,1,1,-1,0,-1,0,1
68019936690,-2,-2,-7,0,3,0,0,2
68019952171,0,0,0,1,-1,-1,-1,1
68019952171,-2,-3,-2,0,-1,0,0,0
68019958923,1,-1,1,0,-1,1,-1,-1
68019958923,0,1,0,-3,-2,-3,-3,-2
68019975352,-1,-1,-2,-2,-1,-1,-1,-1
68019975352,-3,0,-2,-1,-1,-3,-2,1
68019976891,-2,0,-1,0,0,0,-1,-1
68019976891,-1,-3,-3,-2,1,-3,-1,-2
68019989919,-1,-2,-2,0,0,-1,-2,-2
68019989919,-1,-2,0,-1,-3,-2,-3,-2
68019996459,1,0,-2,-2,-1,-1,-1,-1
68019996459,-2,-2,0,-2,-2,-3,-1,-1
68020012335,-3,-1,1,-3,0,2,1,-1
68020012335,-1,-3,0,1,-1,0,0,-1
68020018921,-1,0,-10,-3,1,0,0,0
68020018921,0,-1,0,-2,-1,0,-3,-2
68020035481,1,0,-1,-1,-1,-2,-1,0
68020035481,-3,-1,2,-1,-2,-1,-1,-1
68020036917,-2,0,1,2,1,1,0,-2
68020036917,-1,-2,-4,-3,-4,-1,0,0
68020049822,-1,-1,-1,0,0,-2,-3,-1
68020049822,1,0,-3,-2,-1,-1,0,-1
68020056527,0,0,-1,1,-1,-1,-2,-1
68020056527,-1,-2,-1,-1,0,0,-1,-2
68020072334,1,0,1,0,2,1,1,0
68020072334,-1,-1,-1,-2,-1,-1,-1,-1
68020079132,-1,-3,-3,-3,-3,0,-1,-1
68020079132,-2,-2,0,2,-1,0,-1,-2
68020095416,-2,-1,1,-3,-2,0,-1,-1
68020095416,0,1,-7,-2,0,-2,-1,0
68020096948,-1,-1,-2,-7,-3,-1,0,-1
68020096948,-1,-1,0,-2,0,2,0,0
68020109097,-2,-2,2,2,1,1,-1,-1
68020109097,-2,0,1,-1,1,1,0,0
68020117963,-2,0,-1,-1,0,-1,-2,-1
68020117963,-1,-2,0,-1,-2,-3,-1,0
68020132328,0,-1,-4,-2,-3,-3,0,-1
68020132328,1,-1,-1,0,0,-1,-1,-2
68020139167,0,-1,-1,2,-2,-1,-1,0
68020139167,-1,-1,-3,-3,-1,0,-1,-3
68020155494,-1,-3,-2,1,-1,-1,-1,-2
68020155494,-2,-1,2,0,0,0,-1,0
68020156953,-3,-4,-6,-4,-1,-1,-3,-2
68020156953,-1,-1,1,-1,0,1,-2,-1
68020168974,-2,-1,-2,0,-1,-2,1,0
68020168974,0,-3,-2,-2,0,-2,-3,0
68020177998,-2,-2,2,1,1,1,1,1
68020177998,0,-1,-1,-2,-1,-2,-1,-1
68020192318,0,-1,-1,1,0,0,-1,-2
68020192318,0,1,1,0,-3,0,-1,-1
68020199029,-1,-1,1,0,-2,-2,0,-1
68020199029,-1,0,0,-2,0,1,0,-1
68020215335,0,-3,0,-2,-2,-3,-1,0
68020215335,-2,-2,-2,1,0,-2,-1,-1
68020216944,0,-2,-1,-4,-2,-3,1,-1
68020216944,1,0,-1,-1,-1,-2,0,-1
68020229166,0,-1,-2,-2,-1,-1,-2,0
68020229166,0,-1,-1,1,-2,0,1,0
68020237964,-2,0,3,3,0,-1,-1,-2
68020237964,-3,0,-4,-3,0,1,-1,0
68020252264,0,-1,-1,-1,1,2,1,-1
68020252264,-1,-1,1,-1,-1,-1,-2,-2
68020259133,1,0,0,0,-1,-1,-2,-2
68020259133,-1,-2,-1,-1,-3,-4,-2,0
68020275395,-1,0,1,0,-3,-2,-1,-2
68020275395,-2,0,-3,-2,-2,1,0,-2
68020276938,-1,0,0,1,-1,-2,-3,-2
68020276938,-1,1,0,3,1,3,0,-1
68020289185,-3,-1,-3,-2,0,-2,0,1
68020289185,-1,-1,-1,-2,0,0,1,-1
68020298028,0,0,-1,-2,-1,0,-1,0
68020298028,-2,0,-2,0,-1,-2,0,1
68020312300,-2,-2,-2,-2,-3,-2,-4,-2
68020312300,-3,0,2,1,-1,-1,-1,-1
68020319099,0,0,-4,-1,0,0,0,-2
68020319099,-2,-2,1,0,0,0,0,-3
68020335266,0,-3,3,1,-1,2,1,-1
68020335266,-3,-2,-5,-5,-1,-2,0,0
68020336876,0,0,0,-1,-4,-3,0,0
68020336876,0,-2,-1,-3,-1,0,-1,-2
68020348988,0,1,-4,-1,0,-2,-1,0
68020348988,0,-1,1,-1,0,0,0,-1
68020357921,-3,-1,-1,0,-2,0,-2,0
68020357921,-1,-1,-2,-5,-3,-2,-2,-1
68020372321,-2,-1,-2,0,0,-1,-1,-1
68020372321,0,-1,-6,-1,-2,-1,0,0
68020379133,-1,-2,1,0,-2,-1,-1,-1
68020379133,-1,0,-1,2,-2,-2,-3,-1
68020395324,-2,-2,-2,-2,-1,0,-1,-1
68020395324,-1,-1,-2,-2,0,-1,-3,-1
68020396894,0,-1,3,-1,0,-2,-2,-2
68020396894,-1,-3,-10,-3,1,1,1,0
68020409082,0,-1,0,-2,-3,-2,-1,-2
68020409082,-1,-2,-2,-1,-2,0,-2,0
68020417974,-1,-3,-3,-1,-2,-2,0,0
68020417974,0,-1,1,1,-2,-2,-1,-1
68020432348,-1,2,-1,-1,1,0,1,0
68020432348,0,-2,-2,-2,0,0,0,-2
68020439038,-1,-1,-2,1,1,1,0,1
68020439038,-3,-1,2,-1,-1,-1,-1,-1
68020455523,0,-1,-3,-2,-3,-1,0,-1
68020455523,-1,-2,1,-1,-1,-1,-2,-2
68020456947,0,-2,-3,-7,0,-1,-2,0
68020456947,-1,-2,2,0,-1,-1,-2,0
