timestamp,emg1,emg2,emg3,emg4,emg5,emg6,emg7,emg8
1512715216525588,-2,-2,-1,-1,0,0,0,0
1512715216525588,-1,-5,-4,-2,1,-2,-2,-2
1512715216526587,0,2,0,1,-1,-2,-2,-1
1512715216526587,0,-1,0,0,0,-1,-1,-1
1512715216529625,0,-2,-3,1,-2,-1,-1,-1
1512715216529625,-2,-1,1,-1,1,2,-1,1
1512715216531590,-3,-6,-2,-2,-3,-1,-7,-1
1512715216531590,-2,3,-3,-4,-5,-2,-3,-2
1512715216543587,-1,5,2,0,5,1,-1,-1
1512715216543587,0,-7,0,-1,-4,-3,-2,2
1512715216554603,-1,0,-2,1,-1,0,0,-2
1512715216554603,-2,-3,1,-2,-1,-1,-2,1
1512715216558722,-1,-3,-3,0,-2,0,-2,-3
1512715216558722,0,9,-2,1,-2,-1,-1,-1
1512715216573589,0,-3,0,-1,1,-3,-1,-1
1512715216573589,0,-4,0,-1,-3,-2,-2,-2
1512715216582594,1,4,0,-2,0,1,4,2
1512715216582594,0,-3,-3,1,0,0,0,-1
1512715216590592,0,-3,-1,-2,-1,0,0,1
1512715216590592,-3,-2,-3,-1,0,0,1,-4
1512715216603594,-1,0,-1,-3,-3,-3,-1,-4
1512715216603594,-2,-4,0,-1,1,0,2,-1
1512715216613592,-2,-1,-1,-2,-1,-1,-1,-1
1512715216613592,2,4,0,1,-1,0,0,1
1512715216642598,-2,-6,-3,1,1,-4,-2,-3
1512715216642598,-2,3,0,-2,-2,-2,2,3
1512715216650594,0,-7,-4,-3,-1,-1,-6,-3
1512715216650594,0,-2,0,-1,0,0,1,0
1512715216651596,-2,-8,-3,-4,-1,-1,-3,-2
1512715216651596,1,5,-2,1,1,1,1,-1
1512715216652597,-2,0,0,0,0,1,1,1
1512715216652597,0,3,2,-2,-2,-1,0,1
1512715216663595,1,-2,2,0,-1,-2,-1,2
1512715216663595,1,-3,0,-2,-2,-2,-5,-3
1512715216672600,0,5,0,0,1,1,9,0
1512715216672600,0,-2,0,-1,-1,-3,-3,-2
1512715216678740,-3,-3,-1,-1,1,2,1,0
1512715216678740,-2,-3,1,-3,-2,1,-2,-1
1512715216694597,-1,-2,-4,-1,0,-2,-2,0
1512715216694597,-2,-1,-2,-2,-2,-2,1,-2
1512715216700597,0,6,-1,-1,-3,-2,0,0
1512715216700597,0,-2,-1,-3,-2,-3,-3,-3
1512715216709599,-3,-3,0,2,0,1,-2,-2
1512715216709599,-1,-2,-2,-1,-1,-1,-3,1
1512715216723603,-1,0,-2,1,0,0,-4,-5
1512715216723603,1,2,0,0,-1,-2,-1,-1
1512715216732601,0,-5,-3,-2,-1,-2,-1,-2
1512715216732601,-2,0,-3,-2,0,-2,-3,-3
1512715216738602,-1,-4,-2,-2,0,-2,-1,-1
1512715216738602,1,3,0,-3,-2,0,-2,2
1512715216753604,1,3,0,0,0,-1,-3,-4
1512715216753604,-1,-3,-2,-3,-2,-2,2,2
1512715216760652,-2,2,-1,-1,-2,0,-3,0
1512715216760652,-6,-6,-3,2,-1,-2,-6,-4
1512715216769603,1,2,0,-3,-4,0,2,3
1512715216769603,-1,3,0,3,1,3,0,-1
1512715216783604,-1,-2,1,0,-1,-1,3,-2
1512715216783604,1,0,0,-2,-1,0,2,1
1512715216792612,-2,-6,-1,-1,-1,-5,-6,-3
1512715216792612,0,-2,-4,0,0,-2,-3,1
1512715216798605,2,4,0,-2,-1,2,0,0
1512715216798605,-2,-5,-2,-1,-2,-1,-2,-4
1512715216813608,-1,2,0,-2,-1,-1,0,-1
1512715216813608,-1,-2,-1,-2,-2,1,0,-3
1512715216820612,-1,-4,-1,0,-1,-1,-3,-1
1512715216820612,1,-1,-1,0,-1,-1,2,2
1512715216829606,-4,-9,1,1,2,-2,-2,-3
1512715216829606,0,12,-6,-6,-2,0,-2,-3
1512715216843653,-2,-5,-4,-1,-3,-1,0,2
1512715216843653,-5,-9,-1,-1,1,0,0,-2
1512715216852610,1,7,0,-1,-2,-4,-5,-1
1512715216852610,-2,-3,1,2,-1,-1,-2,-3
1512715216858619,1,1,-1,0,0,1,-1,-1
1512715216858619,-1,0,-1,-2,-2,-4,-2,0
1512715216873616,-4,-5,-2,-2,1,2,0,-4
1512715216873616,1,2,-1,1,1,0,-1,-2
1512715216880614,0,-2,-3,-3,-3,0,0,2
1512715216880614,0,-3,0,-1,0,-1,-3,1
1512715216889610,-1,1,-1,-1,-3,1,-1,-3
1512715216889610,-3,-3,1,0,0,0,-1,0
1512715216903616,0,1,0,1,3,2,6,-2
1512715216903616,-1,-2,2,3,0,-1,0,-2
1512715216912613,1,-3,-4,-3,-2,-4,-2,0
1512715216912613,-2,-9,1,1,-2,0,1,4
1512715216918617,4,13,2,-2,-4,-1,-3,-2
1512715216918617,-2,-3,-4,-1,5,0,1,0
1512715216933617,1,6,2,-2,-4,-1,2,0
1512715216933617,-3,-12,0,-1,-7,-5,-4,-3
1512715216940617,-4,-4,-1,-2,1,-3,-4,-3
1512715216940617,-1,4,-1,-2,-2,2,1,0
1512715216949614,1,2,-1,0,-1,-1,0,-1
1512715216949614,0,0,-2,-2,-3,0,-2,-1
1512715216963762,-3,3,-1,-2,-6,-5,-3,0
1512715216963762,-2,-5,-4,-4,0,-2,-2,-2
1512715216972630,-1,-8,-2,-3,-11,-3,-2,1
1512715216972630,1,4,2,7,38,7,1,1
1512715216978621,-2,-8,-1,-2,-4,0,0,-1
1512715216978621,-1,13,1,2,2,1,-2,-1
1512715216994617,1,-3,-2,-1,-5,0,-2,3
1512715216994617,-2,3,-2,-3,-10,-5,-2,-10
1512715217000619,-3,-7,-3,-1,2,-1,0,0
1512715217000619,0,-4,0,-5,-9,-6,-3,-3
1512715217015622,2,1,2,-1,6,0,-3,-1
1512715217015622,0,-5,0,3,11,9,3,1
1512715217023623,-1,2,-1,-2,-2,-2,-1,-1
1512715217023623,-2,-4,-2,1,0,0,0,-1
1512715217032620,-4,2,-1,4,8,-3,-1,-1
1512715217032620,0,-3,-1,-3,-11,-3,-3,1
1512715217038620,-2,0,0,-2,-2,-1,-3,-3
1512715217038620,-2,-3,1,1,-3,-1,-3,-2
1512715217053623,0,-5,-4,-2,-2,-2,-1,-2
1512715217053623,-2,4,-1,-3,-4,-2,0,0
1512715217060626,1,-2,0,-1,-2,-3,0,-2
1512715217060626,-1,0,2,1,-2,-4,-5,-3
1512715217075630,-3,-4,-3,-1,3,5,0,-2
1512715217075630,-1,-3,-2,-5,-6,-2,-2,-2
1512715217083624,-1,-4,-2,-3,-3,-1,-1,-2
1512715217083624,-1,3,-1,1,-7,0,-1,-1
1512715217092627,-4,2,0,2,-6,2,-1,1
1512715217092627,-1,-4,0,0,-6,-5,-2,-3
1512715217098625,-1,0,-2,0,-5,-3,-2,1
1512715217098625,3,-5,-1,-1,7,3,1,-2
1512715217113627,2,10,2,-5,-7,-3,-3,-1
1512715217113627,1,-3,-4,-2,-15,-3,0,2
1512715217120641,-1,-2,0,3,18,9,0,-1
1512715217120641,1,17,1,-4,-9,-3,0,-2
1512715217135627,-2,-14,0,0,-1,-6,-1,0
1512715217135627,0,3,4,0,-3,-3,-1,-3
1512715217143641,-4,-3,-4,2,7,2,-3,-2
1512715217143641,-2,-5,-2,1,3,3,0,1
1512715217152630,-4,-7,-1,1,8,2,1,-1
1512715217152630,3,9,-5,-7,-7,-5,-3,2
1512715217158644,1,-4,1,6,-5,-1,2,0
1512715217158644,0,1,1,0,8,1,0,-1
1512715217173629,0,-10,-4,-1,-1,1,-1,-3
1512715217173629,-5,2,2,-1,0,-3,-4,-4
1512715217180633,-1,-1,0,-2,-7,-3,1,0
1512715217180633,-1,2,1,-2,-3,-2,0,-2
1512715217195634,-1,-8,-2,0,-3,-5,-3,-3
1512715217195634,0,-1,-1,-3,0,1,-1,-3
1512715217203634,1,7,2,-2,-4,-6,-4,1
1512715217203634,-3,-13,-7,-1,-3,-1,-2,-2
1512715217212647,-1,6,1,-4,-1,2,0,0
1512715217212647,0,-2,-4,2,6,1,5,0
1512715217218635,-1,4,3,0,2,2,2,-1
1512715217218635,0,-8,-4,-4,-3,-5,-4,0
1512715217233650,-1,5,1,2,-5,-3,-1,-4
1512715217233650,0,-4,1,0,5,2,1,1
1512715217240636,6,6,0,-4,-3,1,3,2
1512715217240636,0,0,0,-2,-5,-2,-2,-1
1512715217255635,1,8,-2,-3,2,-2,-7,2
1512715217255635,2,-11,5,-1,-5,2,8,3
1512715217263639,-3,16,-1,-3,-9,-3,-4,-2
1512715217263639,-2,17,0,-1,0,6,3,-4
1512715217272635,-1,-22,-21,-18,-34,-11,-5,-2
1512715217272635,1,2,1,0,-9,-13,-9,0
1512715217286640,2,-10,6,12,50,17,1,0
1512715217286640,1,12,11,13,-6,-2,-2,3
1512715217293656,-4,-10,2,2,3,1,1,-4
1512715217293656,-6,-6,-4,-4,-3,2,-4,-3
1512715217300637,-3,-1,-7,-5,-11,-6,-1,-1
1512715217300637,-3,-12,-6,-7,3,-1,-2,-5
1512715217315638,2,12,3,-1,-3,-1,1,1
1512715217315638,4,10,2,-1,0,0,-1,0
1512715217323652,-3,-14,-4,-3,-4,1,-5,-4
1512715217323652,-1,4,2,-1,2,-1,-1,1
1512715217332641,3,0,2,2,-2,-3,0,5
1512715217332641,-6,0,-6,-1,5,1,-3,-6
1512715217346639,-2,-6,-4,-5,-10,-5,-2,-4
1512715217346639,-2,-8,-3,-3,-19,-6,-3,-1
1512715217353654,-2,7,3,0,7,1,0,-1
1512715217353654,-1,1,0,5,5,0,-3,0
1512715217360641,2,-5,-7,-1,-6,-3,-1,2
1512715217360641,1,1,5,-7,-8,-4,-6,0
1512715217375639,3,22,2,2,15,6,1,0
1512715217375639,-2,-21,-5,-2,1,0,-1,-2
1512715217385646,-1,2,2,-1,-11,-2,0,-2
1512715217385646,-2,-18,-11,-2,7,1,1,-2
1512715217393642,-5,2,-1,1,3,3,2,-2
1512715217393642,-2,1,-2,0,5,-1,-3,-6
1512715217406643,-2,-3,0,-6,-13,-5,-5,-4
1512715217406643,4,6,3,7,36,10,6,2
1512715217413658,-3,-19,-7,-5,-22,-7,-4,-4
1512715217413658,1,5,8,-1,17,13,6,6
1512715217420644,-1,-7,1,-7,-28,-17,-7,-1
1512715217420644,2,21,5,11,30,13,0,2
1512715217435645,0,8,-2,4,17,0,-2,-4
1512715217435645,-3,-2,-4,-1,-2,-6,-5,-1
1512715217443646,-3,-10,2,-1,0,1,0,-2
1512715217443646,-4,-8,-3,-12,-22,-8,-2,-2
1512715217452646,1,6,-4,0,0,0,-1,1
1512715217452646,-1,0,-3,-2,-6,-1,-1,1
1512715217466647,0,4,6,-1,8,-1,0,-1
1512715217466647,-5,-9,-6,-1,-10,-3,-1,-3
1512715217473650,1,12,7,3,8,3,0,0
1512715217473650,0,-2,-1,-3,-7,-10,-5,-3
1512715217480648,-4,-5,-8,0,3,6,2,-2
1512715217480648,-2,-9,-1,-2,8,1,1,0
1512715217495647,0,-7,-3,-4,-5,-1,-4,-1
1512715217495647,0,28,4,2,-7,-2,-3,-2
1512715217503650,-2,-5,-12,0,7,0,1,-1
1512715217503650,5,-9,1,-5,-12,-5,-4,-2
1512715217512663,-2,-4,7,-2,-3,-3,0,2
1512715217512663,-1,-5,-2,-3,-5,-5,1,0
1512715217526651,3,15,-5,2,-3,5,4,1
1512715217526651,-6,-7,4,-2,0,2,3,-5
1512715217533664,1,6,1,-2,-1,1,2,-1
1512715217533664,0,-16,-11,-3,0,-1,-1,2
1512715217540683,-6,-14,1,-1,-5,-3,-2,-6
1512715217540683,0,9,-6,-1,-9,-6,-1,-1
1512715217555651,1,20,3,2,3,1,2,-4
1512715217555651,-2,-16,-1,-4,-5,-2,-2,-3
1512715217563663,-1,4,5,1,5,0,-1,0
1512715217563663,0,-9,-1,3,-2,-3,-3,0
1512715217572655,-5,-7,-12,-6,3,2,-1,-5
1512715217572655,-1,-1,12,4,-1,-1,-1,0
1512715217586657,2,1,-8,-2,4,-2,0,2
1512715217586657,-3,5,4,0,-5,-2,1,0
1512715217593670,-1,-9,4,2,10,1,1,1
1512715217593670,-4,5,-4,-8,-19,-5,-3,-2
1512715217600655,-1,-12,-6,0,-8,-6,-6,-6
1512715217600655,1,10,-20,2,5,4,-1,1
1512715217615653,-2,-9,16,-1,-9,-7,-4,-3
1512715217615653,-2,1,-7,-1,10,0,0,0
1512715217623673,-1,5,11,2,-2,-3,-4,1
1512715217623673,2,9,5,-5,-3,-5,-4,-2
1512715217638672,-4,-13,-9,-2,-2,0,-1,-1
1512715217638672,-3,-3,2,-1,-7,-2,2,0
1512715217646659,4,21,-2,-5,-4,-3,0,4
1512715217646659,-3,-29,-11,-7,0,0,-2,1
1512715217661658,0,-15,-3,7,-2,-1,-2,-2
1512715217661658,1,20,11,6,1,2,0,0
1512715217662658,-1,-12,-8,2,17,6,3,5
1512715217662658,-2,2,-3,-5,-3,-2,-2,-4
1512715217675660,-1,8,4,-3,-2,-1,-1,-3
1512715217675660,-4,-14,-11,-2,-4,-3,-3,-2
1512715217683675,1,0,8,4,6,4,1,-3
1512715217683675,-1,-2,9,-4,-7,-9,-4,0
1512715217698677,-1,-5,-6,-1,-2,3,0,0
1512715217698677,3,14,1,2,22,3,0,-1
1512715217706662,-3,-2,2,-3,0,-1,-1,-1
1512715217706662,-2,-12,-2,0,-9,-4,-1,-3
1512715217721663,-1,7,-14,1,3,4,-1,2
1512715217721663,-1,11,21,1,1,1,-1,-2
1512715217722669,-2,1,-25,-7,-3,-5,-4,-5
1512715217722669,3,2,12,3,-11,-2,3,4
1512715217735667,2,-5,3,1,0,-3,1,0
1512715217735667,3,3,-7,1,0,1,-1,2
1512715217743678,0,-8,-3,-1,5,5,1,2
1512715217743678,2,25,5,1,0,-1,0,-1
1512715217758680,-1,-11,2,-2,-3,-2,-1,3
1512715217758680,-2,-7,-13,1,5,4,-2,-2
1512715217766662,-1,-2,16,1,-10,-4,-2,1
1512715217766662,-4,-13,-15,-5,-5,-3,-1,1
1512715217781663,-1,5,-2,-3,0,0,-1,-2
1512715217781663,0,-15,-3,-4,-12,-6,-1,-1
1512715217782665,0,13,-1,0,7,-1,0,-4
1512715217782665,-1,0,1,2,3,1,0,-3
1512715217795664,-1,-6,4,-3,-4,-2,0,-1
1512715217795664,-5,-17,-15,-6,-1,-5,-4,-5
1512715217803681,1,10,-2,-4,-1,0,-1,-1
1512715217803681,1,5,5,8,7,2,0,-1
1512715217818682,-3,-7,-6,-2,2,-1,0,-2
1512715217818682,0,4,-3,1,-8,-2,0,-2
1512715217826669,-3,-8,-3,-5,0,-1,-2,-1
1512715217826669,2,6,-6,1,27,9,0,-1
1512715217841669,1,2,-1,0,-3,-2,-2,2
1512715217841669,-2,-10,-3,-4,-3,-1,0,-3
1512715217842667,0,5,7,-2,-6,-3,0,0
1512715217842667,-4,-14,-3,-5,-6,-3,-2,-2
1512715217858672,3,13,4,1,-2,-5,-1,1
1512715217858672,2,3,2,1,4,1,2,-1
1512715217865670,-2,-7,-3,-1,-7,-3,-1,-2
1512715217865670,-1,-2,1,-1,-5,-3,-4,-1
1512715217878686,-4,-7,-3,-2,7,6,1,-7
1512715217878686,-2,-14,-3,-3,-4,-2,-2,1
1512715217886671,2,2,-1,-1,0,0,0,0
1512715217886671,-3,-12,-7,-1,-2,-1,2,1
1512715217901676,-1,6,-3,-4,-9,-5,-4,-2
1512715217901676,-2,5,-2,-6,-2,-4,-4,-3
1512715217902678,-1,-5,0,2,-4,-1,2,0
1512715217902678,-3,-5,6,-4,-8,-4,-4,0
1512715217918674,-2,1,-13,-1,-3,-1,-1,-8
1512715217918674,1,7,11,-3,-9,-5,-1,-2
1512715217923689,0,1,-3,1,8,3,-2,-1
1512715217923689,-1,3,-3,-1,-8,-4,-2,0
1512715217938687,-6,-13,3,0,-3,-1,-1,-1
1512715217938687,-1,5,0,5,-1,-1,-4,-3
1512715217946672,0,-1,-9,-5,-3,0,0,-2
1512715217946672,1,4,0,0,5,1,2,2
1512715217961810,-4,-16,-1,-2,2,-1,0,0
1512715217961810,1,11,1,1,4,1,1,2
1512715217962675,-1,-4,-11,-1,-1,-1,-1,2
1512715217962675,-1,4,12,-2,-2,1,-1,-4
1512715217985678,2,-1,4,1,2,-2,-1,-1
1512715217985678,-3,-2,-4,-2,-1,-1,0,-1
1512715217985678,-2,-5,0,0,-8,-1,-3,-2
1512715217985678,1,5,0,2,9,5,0,0
1512715218000676,-2,3,-4,-5,-4,-1,-2,-5
1512715218000676,-1,-7,2,0,1,2,-1,-2
1512715218006680,0,-5,5,0,-4,-2,-2,-1
1512715218006680,-4,-7,-9,0,0,-3,-1,-2
1512715218021678,0,5,-1,1,-3,-6,-3,-1
1512715218021678,1,-2,1,-5,14,7,-1,1
1512715218022679,-2,9,6,5,-7,-6,-3,-1
1512715218022679,-3,-13,-11,-7,-13,-4,-3,-3
1512715218035711,0,1,6,6,7,4,0,3
1512715218035711,-2,-6,-3,-1,-15,-5,0,-2
1512715218043694,-4,-2,-4,-1,0,-1,-2,-3
1512715218043694,1,7,0,-2,-1,-4,-2,0
1512715218058696,-2,-15,-16,-3,-7,-5,-2,-1
1512715218058696,-3,1,23,-1,4,1,-1,-1
1512715218066680,0,11,-3,-2,0,-1,2,-2
1512715218066680,-5,-8,-5,1,-8,-4,0,-6
1512715218081719,-2,0,-9,-8,-1,-4,-3,0
1512715218081719,-1,-8,-3,-1,-8,-3,-2,0
1512715218082697,-3,-4,2,-1,10,7,0,-2
1512715218082697,0,7,5,2,-1,0,0,-3
1512715218095681,-2,-3,-4,-1,-3,1,2,2
1512715218095681,-4,-3,-9,1,-2,-1,-1,-3
1512715218103683,-1,-6,-7,-3,-15,-8,-5,-2
1512715218103683,0,-4,-6,-4,7,4,2,-2
1512715218118697,-1,1,9,0,-3,-2,-2,0
1512715218118697,1,-2,-5,-1,-1,-2,-1,-1
1512715218126684,-1,-4,10,2,-4,-3,0,3
1512715218126684,0,-1,-2,-2,-1,0,-3,1
1512715218141685,0,4,-7,-4,0,-1,-1,0
1512715218141685,-2,3,7,2,0,2,2,-1
1512715218142689,-2,-7,3,0,4,0,1,-2
1512715218142689,4,7,5,-1,-1,-3,-1,1
1512715218155687,5,14,-1,-3,-5,3,0,0
1512715218155687,1,-12,-13,-2,0,-6,-7,-1
1512715218163690,1,-4,9,-1,3,1,2,-3
1512715218163690,-4,-10,8,6,1,5,-1,-2
1512715218184690,-1,12,11,-1,-3,-2,1,-2
1512715218184690,1,-2,2,4,0,-1,0,0
1512715218187688,-2,-4,8,0,-1,-2,-1,0
1512715218187688,-4,-8,-14,-5,0,-1,0,0
1512715218200689,-3,4,1,-1,2,-2,-2,-1
1512715218200689,5,14,-8,-2,-4,-3,-2,1
1512715218208688,-1,-12,-1,-7,-5,-3,-1,3
1512715218208688,2,18,-7,4,-7,-2,-1,-3
1512715218223691,-2,-10,-1,-8,11,3,-1,0
1512715218223691,-5,-1,-1,-4,-9,-7,-5,-1
1512715218224691,2,5,0,-1,-14,0,-1,-1
1512715218224691,-1,2,-1,-1,8,3,-2,1
1512715218246693,-1,-10,-2,4,16,6,0,-2
1512715218246693,-2,6,0,1,5,-2,-1,-2
1512715218247692,0,2,-7,-3,-4,7,4,-2
1512715218247692,-1,-11,-15,-6,-6,-3,-3,-1
1512715218269693,0,9,5,4,-7,0,1,-1
1512715218269693,1,-3,-5,-3,-6,0,3,1
1512715218270696,-3,3,-6,2,19,5,-1,-2
1512715218270696,-2,-7,-3,-4,-13,-6,-1,-2
1512715218275695,-1,0,9,0,-8,-6,0,0
1512715218275695,-2,-3,0,1,-1,1,-2,-1
1512715218283709,0,3,-1,0,3,1,-2,-2
1512715218283709,-2,-5,4,-1,3,0,0,0
1512715218298695,-1,-4,-2,-2,-3,-2,-3,0
1512715218298695,0,1,-3,-2,-1,2,2,0
1512715218306696,-1,-8,-2,-3,1,-3,-3,-5
1512715218306696,0,9,5,-2,-5,-4,1,-2
1512715218320696,2,-5,-10,3,2,2,0,1
1512715218320696,-2,-11,1,1,6,5,2,1
1512715218328695,1,16,-5,-3,-1,-3,-2,0
1512715218328695,-2,-10,2,0,-2,-2,-2,-3
1512715218338696,-1,9,2,-3,-5,-5,-1,-2
1512715218338696,-2,-11,-4,-2,-5,-2,-2,-1
1512715218343696,0,-6,-2,1,-2,-3,-2,-1
1512715218343696,2,15,3,-1,0,-1,-1,-1
1512715218358712,-1,-10,-3,-4,-3,-2,-2,1
1512715218358712,0,0,-5,-4,2,2,-3,-1
1512715218373699,-1,8,-4,-4,-8,-6,-1,-3
1512715218373699,0,1,0,2,-6,-1,0,0
1512715218382699,-3,-4,7,3,4,0,1,0
1512715218382699,-1,0,-3,-4,-6,-3,-3,-2
1512715218388700,-2,-7,-3,-2,1,0,-1,-1
1512715218388700,0,-9,2,-1,0,-1,-2,0
1512715218404700,-2,11,-4,-2,-5,-3,-2,-2
1512715218404700,-2,-1,0,1,3,-1,-2,-1
1512715218405700,1,-4,0,1,1,3,2,1
1512715218405700,0,1,2,2,6,2,0,0
1512715218418712,-2,5,6,-1,-7,1,0,-4
1512715218418712,0,-10,-9,-7,-3,-2,0,-1
1512715218426703,-1,-3,-11,0,0,0,-2,-3
1512715218426703,-1,4,15,-2,3,0,2,-1
1512715218440705,-1,-5,-7,1,-3,-2,0,0
1512715218440705,-1,7,3,2,0,-2,-1,-2
1512715218448702,0,-2,3,0,-7,-1,0,-1
1512715218448702,-2,-5,-12,-5,-7,-1,-3,-2
1512715218464704,1,-3,-1,-2,3,-2,-1,-2
1512715218464704,-2,-5,8,5,2,2,2,0
1512715218465705,-2,2,-5,-1,-5,-5,-3,1
1512715218465705,1,6,-3,-3,0,-3,-2,-2
1512715218478718,0,-7,0,-1,-2,0,0,-1
1512715218478718,-3,0,-3,-4,2,-3,-2,-1
1512715218486707,-2,0,6,0,-8,-3,2,0
1512715218486707,-2,8,8,2,-1,0,1,2
1512715218501707,-1,-9,-8,-2,-4,-4,-5,-2
1512715218501707,-1,-16,-2,-3,1,2,2,0
1512715218508708,0,9,0,-3,1,-2,-2,2
1512715218508708,0,-1,0,-1,0,-4,-3,-3
1512715218523708,-2,-2,-1,-1,1,1,1,1
1512715218523708,-2,1,-4,0,-2,0,0,0
1512715218530709,1,-1,3,0,3,1,-2,0
1512715218530709,-1,-3,-7,-3,0,-1,-2,-1
1512715218538721,0,-2,4,3,-1,-2,-1,-2
1512715218538721,-2,3,-2,2,10,6,1,0
1512715218547707,-4,-9,-1,-2,-1,1,-1,-1
1512715218547707,-2,-3,3,1,3,2,-1,-1
1512715218560711,-1,4,-8,-3,-3,-4,-1,-3
1512715218560711,3,14,-1,-5,-7,-2,-2,0
1512715218569711,0,-7,-1,-1,1,-2,-3,0
1512715218569711,-2,-2,-5,1,-2,-2,-2,-1
