timestamp,emg1,emg2,emg3,emg4,emg5,emg6,emg7,emg8
68174927091,-3,0,-1,-2,-4,-3,-1,-3
68174927091,-1,-2,-2,-1,-3,-4,-3,-3
68174927961,0,-1,0,1,3,2,2,-1
68174927961,0,-3,0,1,1,1,0,1
68174928921,-1,1,1,-1,-1,-2,-2,-1
68174928921,-2,-1,0,0,2,3,1,-2
68174931667,0,0,-1,0,-3,0,0,0
68174931667,-1,0,-2,-2,-1,-2,-3,-3
68174940201,-2,-3,-4,-2,0,1,0,-2
68174940201,0,-1,2,-1,-5,-4,-3,-1
68174947531,-2,-4,-2,1,-2,-2,-3,-2
68174947531,-2,0,-3,-2,0,0,1,-1
68174955149,-1,-2,-1,-2,-6,-4,-2,-2
68174955149,-2,1,-4,2,1,2,2,0
68174968615,-1,-1,-2,-4,-4,-5,-4,-3
68174968615,-1,-2,-1,0,0,0,-2,-1
68174980229,0,0,-2,-2,1,-1,-2,1
68174980229,-1,0,1,3,0,0,0,-2
68174991724,-2,0,-2,-1,-4,-4,-4,0
68174991724,-2,-1,2,0,0,2,0,0
68175000238,0,0,-1,-1,0,2,0,-1
68175000238,-1,-2,-2,-1,1,-2,-2,-2
68175046987,0,0,-1,0,1,-2,-2,-2
68175046987,-1,1,0,-1,-2,0,-1,-1
68175047967,-2,-4,-4,-4,-3,-2,-1,-1
68175047967,-1,-1,-1,-1,-2,-1,-3,-1
68175048608,-2,-1,-3,-1,1,1,2,-1
68175048608,-1,-1,0,1,0,1,-1,1
68175051181,-1,1,-1,-4,-3,-3,-3,-2
68175051181,-1,-3,-2,2,2,2,1,-1
68175060002,-1,-3,-1,0,-3,-2,-1,0
68175060002,-1,-1,-3,-1,-1,-1,-2,-3
68175065951,0,1,-1,0,-1,-2,-1,-1
68175065951,-1,0,-1,0,3,1,2,-1
68175074977,-2,0,0,-2,-2,-3,-5,-3
68175074977,-1,0,2,0,-2,-1,0,0
68175088524,-1,-2,-1,0,-2,-2,-3,-1
68175088524,0,0,-1,-1,0,-2,0,0
68175097499,-1,-1,-1,-2,1,1,0,-1
68175097499,-1,-1,-2,-4,-3,-4,-1,-1
68175103735,-1,-3,-2,-2,-1,0,-1,-2
68175103735,-2,0,-1,-1,-2,-3,-4,-2
68175120008,-1,-1,-1,0,1,1,1,-1
68175120008,1,0,-1,-2,-2,-3,-3,-1
68175126149,-1,-2,-1,2,3,3,1,0
68175126149,0,-1,-3,-2,-6,-3,-2,-3
68175135002,0,1,0,0,-3,-2,0,0
68175135002,-3,-1,-1,-3,0,0,-2,-4
68175148446,1,1,1,1,-2,0,-2,0
68175148446,-2,-2,-1,-2,0,-1,-2,-1
68175157483,-1,-1,-2,0,1,2,-3,0
68175157483,-1,0,6,3,1,-4,1,1
68175163490,0,1,-1,0,2,1,1,-1
68175163490,0,-2,0,-1,-1,1,0,-2
68175179994,-1,-3,-1,-2,-5,-5,-1,-2
68175179994,1,-1,-3,-2,0,0,1,1
68175186035,-3,0,-1,-1,-2,-2,-2,-1
68175186035,-1,1,-1,-3,-2,-2,0,1
68175194999,2,-2,-1,-2,-3,-3,-2,0
68175194999,-2,-5,-3,1,0,1,-1,0
68175208620,0,1,0,-1,-1,0,2,0
68175208620,-1,2,-2,-1,-1,-2,-2,-1
68175217593,-2,-1,1,-2,0,-3,-3,-1
68175217593,1,-2,1,-4,-4,-3,0,-5
68175223600,0,0,-3,-1,-1,-1,0,-2
68175223600,-1,2,0,1,2,4,2,-1
68175239981,-1,-4,-2,0,1,-1,-2,-2
68175239981,0,1,1,-1,1,2,0,-1
68175245968,-1,0,0,-2,-1,-2,-3,-2
68175245968,-1,-5,-5,-3,-3,-1,-2,0
68175255052,-2,-1,-6,-5,1,0,1,0
68175255052,-3,0,4,2,-2,-2,-4,-2
68175268702,0,-1,-1,0,-3,-3,1,-2
68175268702,0,-2,-3,-6,-2,-4,-3,-2
68175277592,-1,-1,-3,0,-2,0,0,-1
68175277592,-1,0,-2,1,8,5,3,1
68175283558,-2,-2,-4,-2,1,1,1,0
68175283558,-4,-1,9,4,-3,-2,-2,-2
68175300043,1,1,-2,-3,-4,0,-3,-2
68175300043,0,-3,-4,-4,-7,-7,-5,-2
68175306221,0,-1,0,6,6,4,2,2
68175306221,0,-3,-7,-1,1,0,2,0
68175315005,0,0,3,2,-2,-2,0,-2
68175315005,-1,-2,-7,-1,0,2,0,-1
68175328711,0,3,-4,-2,-4,0,3,0
68175328711,1,2,11,-5,-2,-6,-5,-3
68175337634,-3,-3,10,8,0,-2,2,0
68175337634,1,6,14,12,7,2,-1,1
68175343713,-3,-4,-23,-13,-4,-4,-4,-3
68175343713,1,1,-16,3,-1,-1,1,4
68175360032,4,-3,-16,-32,-11,-7,-5,-6
68175360032,-4,-5,-11,0,-1,2,2,-5
68175366257,0,4,12,7,0,-4,-3,3
68175366257,-2,-2,1,-3,2,4,-1,-6
68175375071,0,2,-3,1,-1,-1,-2,1
68175375071,-5,2,0,-3,-6,-3,-2,-2
68175388422,7,-6,1,3,-4,-3,-4,0
68175388422,-9,-6,1,14,-3,-3,-3,-5
68175397537,-2,-1,-1,-22,2,3,2,7
68175397537,1,-4,-12,-5,-3,-2,-3,-5
68175411116,3,3,16,9,-2,-5,-3,3
68175411116,0,-4,-8,2,-5,-3,-2,0
68175419985,-1,2,2,3,1,0,0,-4
68175419985,-1,0,4,7,2,1,3,3
68175426148,-6,-6,5,1,1,2,-1,-5
68175426148,3,1,5,0,-2,-2,-1,0
68175441235,-4,1,9,5,-1,-3,-3,-4
68175441235,-1,-4,-9,-5,-3,-1,0,4
68175448546,-2,0,3,2,-4,-3,-4,-7
68175448546,2,4,10,-3,1,1,-2,1
68175457608,-1,-4,-13,0,1,4,1,-1
68175457608,3,5,17,5,1,0,-2,0
68175470921,-1,-3,-18,-7,-2,-4,-2,-1
68175470921,-2,0,25,5,-4,-6,-4,-1
68175479921,-6,0,-1,8,1,0,-1,-1
68175479921,10,-6,-18,-17,-4,-2,-2,-9
68175486183,-2,0,-3,-7,-2,-1,-1,3
68175486183,6,7,0,0,2,2,2,2
68175494963,15,-3,2,6,-3,-3,-4,-4
68175494963,-14,-1,-3,-6,-2,0,-2,-1
68175508481,-6,1,-6,-5,-3,-4,-2,-1
68175508481,-2,-2,-8,-5,-2,1,0,-3
68175517505,2,-5,18,3,3,1,3,3
68175517505,6,0,-11,1,-3,-6,-5,-1
68175531075,2,4,3,-3,-2,-2,-2,0
68175531075,-13,-12,2,-12,0,0,0,-3
68175539917,-1,-5,-24,2,1,1,0,-3
68175539917,7,-7,-27,0,-2,-1,-1,0
68175545962,-5,0,35,-17,0,-1,1,4
68175545962,3,4,-29,0,3,3,2,1
68175554959,-1,15,14,0,-1,0,-3,-5
68175554959,-8,-2,6,2,-3,-4,-2,2
68175568580,24,5,22,15,-1,2,3,-1
68175568580,-32,-6,-2,-6,1,-2,-3,3
68175577485,-11,-3,-7,1,2,0,0,-6
68175577485,1,-6,2,-13,-7,-6,-5,13
68175591018,-2,7,6,19,6,8,5,-21
68175591018,-2,-8,-13,-18,-6,-5,-5,-8
68175600040,3,5,7,11,1,1,1,12
68175600040,3,4,7,-13,-3,-2,-2,0
68175605921,-16,-5,3,-4,-2,-2,-3,-10
68175605921,0,6,-3,-1,3,0,-3,-5
68175614945,-24,-5,-6,-17,-6,-1,7,-5
68175614945,2,-3,-52,10,-4,0,1,4
68175628746,4,-12,-13,-11,1,-2,-2,6
68175628746,-19,0,9,32,0,-1,4,4
68175637522,5,-3,-22,-26,0,-2,-6,10
68175637522,3,6,33,19,0,-3,-8,-52
68175651224,16,0,-19,-22,-3,0,0,11
68175651224,-14,-11,-3,13,1,0,0,0
68175660042,-4,12,24,31,0,-2,1,-17
68175660042,-5,-12,-2,-14,0,0,4,18
68175666152,-16,5,-13,7,-5,-4,-5,-6
68175666152,36,4,9,-3,-1,0,-1,-2
68175681166,7,-4,8,5,0,-3,-4,1
68175681166,-11,11,15,-4,-4,-2,-4,0
68175688688,5,-10,-18,-3,2,4,3,-3
68175688688,-5,4,-8,-28,-7,-2,3,-4
68175697613,14,-3,1,-1,-1,0,0,37
68175697613,-2,-1,-3,29,1,-1,-7,-5
68175711148,-2,-4,4,0,0,-3,-2,-1
68175711148,4,1,-1,-16,0,5,9,11
68175719978,33,0,6,23,-2,-4,-16,-12
68175719978,-63,-4,11,-21,0,1,4,-3
68175725999,16,2,-13,26,-4,-4,0,26
68175725999,-8,-16,8,2,1,0,-4,-17
68175741228,9,3,-6,-23,0,0,7,-16
68175741228,9,-1,9,16,6,5,4,11
68175748700,1,0,-2,-10,-4,-3,-5,1
68175748700,6,4,-6,-7,-6,-6,-5,1
68175757597,-8,0,2,12,-6,-6,-4,-2
68175757597,-16,-6,9,0,4,2,-13,-10
68175771148,-13,0,5,-7,2,4,28,1
68175771148,9,7,-10,8,-2,-1,-5,2
68175780027,-5,-5,-10,-8,-2,1,-2,-8
68175780027,22,5,0,-6,1,1,3,11
68175786016,-27,-6,1,25,-2,-6,-15,-3
68175786016,-15,-5,-15,3,-4,-2,5,14
68175801181,42,5,-7,29,5,-1,-6,-10
68175801181,7,-5,-11,-44,-3,0,4,-1
68175808565,0,-7,17,18,0,-2,-10,-6
68175808565,6,-2,-2,-32,-6,2,4,-10
68175817538,-18,-2,-8,-10,-7,-5,-5,11
68175817538,13,5,4,18,6,2,13,-5
68175831175,15,0,0,1,3,-2,-8,39
68175831175,5,5,0,9,2,-3,-13,-51
68175840054,-13,-1,3,-19,-4,1,9,-3
68175840054,8,10,16,2,-1,-4,-8,0
68175846193,0,-16,-28,-21,-7,-4,-2,-11
68175846193,-6,2,14,11,4,4,5,16
68175861164,6,4,-4,-17,-1,3,1,8
68175861164,-12,-1,5,26,6,0,-2,-6
68175868655,-23,-5,-21,-82,-17,-4,0,-13
68175868655,22,1,1,36,3,-1,-14,1
68175877498,-36,-11,5,-25,1,0,8,-12
68175877498,-13,-10,-4,1,0,6,8,18
68175891183,-1,10,15,12,3,2,-4,-12
68175891183,14,-2,-7,-10,-3,-6,-8,5
68175900111,-31,2,3,10,-3,-4,-9,-1
68175900111,47,-5,6,5,3,5,7,-9
68175906278,31,-1,-2,12,1,0,-1,4
68175906278,-25,2,9,0,7,-1,7,2
68175921166,-7,-8,-23,-13,-13,-4,0,0
68175921166,1,-3,-14,-30,-1,-4,-7,3
68175928755,-41,0,-10,9,3,1,-5,-12
68175928755,27,0,2,8,2,13,25,26
68175937548,20,5,5,-7,0,-1,-8,-17
68175937548,-2,-1,-2,-2,-5,-5,-2,4
68175951010,-23,10,9,7,1,0,1,-12
68175951010,1,-5,-48,-15,-5,-7,-6,1
68175959966,-6,-5,0,0,-2,0,3,5
68175959966,10,4,10,-7,-8,-2,-2,-3
68175974335,-10,-3,11,37,13,1,4,3
68175974335,-2,2,4,-38,-5,-3,-5,-11
68175980989,5,3,13,19,8,3,-3,-3
68175980989,-1,-8,-44,1,-3,-8,-2,-3
68175988716,-17,5,4,-2,-3,0,1,8
68175988716,-6,-6,6,1,-2,4,-1,1
68175997455,5,0,7,12,3,-1,0,1
68175997455,-1,-7,-3,12,0,-1,-3,1
68176011084,3,2,12,-2,-5,-2,-2,5
68176011084,-3,-2,0,-1,-4,-3,-8,-25
68176019941,-16,-5,-3,-2,-1,-6,-19,-2
68176019941,-5,8,8,3,-2,5,20,7
68176034207,18,-1,8,-14,2,3,0,-3
68176034207,-9,4,19,22,1,-2,-2,4
68176041017,-1,-8,-14,-27,-7,-3,-1,-14
68176041017,4,0,-5,-1,-4,-5,-12,7
68176057504,10,0,-6,-6,-2,-1,-1,-7
68176057504,-24,3,17,9,-3,-5,-3,4
68176059048,5,-4,-7,4,3,7,9,8
68176059048,-3,2,3,-5,-6,-2,-3,-4
68176071176,0,-2,-3,-2,-4,-1,0,-9
68176071176,13,-1,-1,3,3,-2,-3,10
68176080071,-24,-14,-18,-3,-6,-4,-5,-19
68176080071,10,4,11,-2,-1,0,-2,-5
68176094201,12,-10,-5,-6,-3,-2,-4,-2
68176094201,2,0,-24,-8,-3,-3,1,0
68176101063,-15,7,7,6,4,3,5,10
68176101063,-17,-3,8,2,2,-2,-3,-7
68176117370,4,-4,-13,-6,-4,-3,-1,4
68176117370,2,-2,5,1,1,-1,-3,-3
68176118993,3,3,8,6,1,2,4,9
68176118993,-9,-3,-6,1,1,0,-5,-3
68176131192,8,1,-3,-2,3,3,2,2
68176131192,-4,-1,0,-3,-5,-2,-3,1
68176139916,6,2,1,6,4,1,-4,4
68176139916,-4,-2,-4,-9,-7,-5,8,-6
68176154410,14,1,1,2,-2,-1,-1,9
68176154410,-14,-8,-3,-2,-2,-3,-4,0
68176161315,6,-4,-2,1,-1,-1,-3,2
68176161315,0,2,-7,-1,3,2,0,3
68176177489,17,-1,-6,-1,-2,-3,-3,-11
68176177489,7,1,5,1,2,3,1,1
68176178977,-5,1,5,-2,-3,-2,0,2
68176178977,-3,0,-2,-4,-2,-3,-5,1
68176191765,-11,-4,-1,0,0,0,3,-5
68176191765,-2,8,10,1,1,0,1,11
68176198663,17,-1,-23,-6,-1,-2,1,-4
68176198663,-3,-2,8,3,0,-1,-2,-3
68176214400,-6,-3,-15,-5,-2,-1,-2,-3
68176214400,-6,-2,8,2,-1,-2,1,-5
68176221283,12,8,10,2,1,0,4,10
68176221283,-5,-7,-6,-1,2,1,-2,0
68176237583,-8,1,-4,-3,-4,-1,-1,-2
68176237583,6,1,-3,0,-1,0,0,6
68176238939,-1,-3,2,0,-2,0,1,2
68176238939,1,-2,-1,-1,-1,-3,-7,-13
68176251931,4,1,6,2,3,1,-4,12
68176251931,-2,-5,-5,-4,-4,-4,-4,-7
68176258709,-9,-5,3,1,-5,-4,-2,-2
68176258709,1,-1,-2,-3,-2,0,1,2
68176274461,-6,0,-1,0,-1,-1,-1,-4
68176274461,-3,-1,-3,-2,2,4,2,-6
68176281051,0,-3,-8,-3,-1,-2,-6,-2
68176281051,-1,-1,-4,-1,-5,-2,1,0
68176297521,-3,-1,10,0,0,0,1,-5
68176297521,-6,-7,-5,-2,0,-2,-4,5
68176298967,-1,0,-6,2,2,1,2,6
68176298967,-19,0,6,0,0,0,-1,-10
68176311907,-6,0,-1,-1,-1,-1,-2,-4
68176311907,-1,-4,-7,-2,-1,1,-1,-1
68176318799,-3,0,-6,-2,-2,-3,2,6
68176318799,15,-1,0,0,-1,-1,-5,4
68176334262,-4,0,-5,-1,-1,-2,1,-2
68176334262,3,-1,5,0,2,1,0,-6
68176341006,-7,-1,1,-2,-2,0,0,-6
68176341006,-12,-2,1,-3,0,0,1,-6
68176357530,18,-3,-2,0,-2,-2,-2,-2
68176357530,0,0,-1,-2,-4,-2,-1,13
68176359021,-2,-1,-3,-1,-1,-1,-2,-14
68176359021,-11,0,0,5,3,1,0,7
68176371257,15,2,2,-3,-4,-2,1,8
68176371257,-5,-4,-3,1,1,1,0,2
68176379975,6,0,0,-2,1,1,-1,2
68176379975,1,0,-2,-2,1,0,-1,3
68176394419,-9,1,-1,0,0,-3,-1,-1
68176394419,-7,-1,-1,-2,-4,-3,-3,-7
68176401202,0,-2,6,0,-2,-1,0,-1
68176401202,10,1,5,0,-3,-2,0,-1
68176417523,-11,-1,2,2,0,-1,-1,-6
68176417523,-6,-1,-5,-3,-2,-1,1,-11
68176418949,-8,-1,4,0,-1,0,-4,10
68176418949,2,-1,-3,-2,-4,-2,-4,4
68176431006,-9,-1,-1,-1,-1,-1,-1,-4
68176431006,4,2,-1,0,-1,-2,2,0
68176440085,2,-1,2,-1,-1,-3,-3,-7
68176440085,-11,-1,-5,-4,1,1,-1,0
68176454265,1,-2,-4,-2,0,0,0,0
68176454265,5,-2,2,1,-1,-2,-2,3
68176461121,-1,-2,-2,-1,1,3,3,1
68176461121,4,-3,-1,-1,-3,-5,-4,-11
68176477537,-7,-2,0,-2,0,1,0,-2
68176477537,-12,0,-3,-3,-2,-2,-1,2
68176478953,17,1,-1,-1,-3,-3,0,9
68176478953,-2,-1,2,3,7,5,5,-1
68176491207,1,0,0,1,0,-1,-1,3
68176491207,3,1,-2,-3,-3,-1,-4,-4
68176500041,-7,-1,-2,-2,-5,-3,-2,-4
68176500041,-1,-2,-5,-3,-3,-2,-3,1
68176514399,-2,0,0,2,-1,-3,0,1
68176514399,7,0,-3,0,-1,-2,0,-6
68176520986,-4,-1,-2,-3,-1,-1,0,-6
68176520986,17,1,5,-1,-4,-4,0,-4
68176537289,-26,-7,-16,-1,0,0,-2,6
68176537289,-4,-3,3,1,2,3,0,-1
68176538952,-10,-1,-1,1,4,3,1,-5
68176538952,11,1,0,0,1,3,3,13
68176550954,4,0,-1,-3,-2,-2,0,-11
68176550954,4,-1,-1,-1,-4,-3,-2,-2
68176559981,-6,-1,0,-2,0,-1,1,0
68176559981,-4,-1,-1,0,-4,-2,-3,-1
68176574284,-5,1,2,-1,1,0,-1,-6
68176574284,12,-2,1,0,-1,-2,-3,-2
68176580990,1,1,-3,-1,-3,-1,1,-1
68176580990,-9,-2,-3,-1,-6,-6,-7,-8
68176597338,2,-4,4,0,4,5,1,5
68176597338,-9,-1,-2,-1,2,3,0,-29
68176598992,2,-4,-3,0,-1,-4,-2,-3
68176598992,3,-1,-2,-2,-2,0,0,0
68176610982,-1,-1,-3,-3,-4,-4,-2,-4
68176610982,0,0,1,-3,-1,-1,-1,5
68176619963,-6,-4,3,1,-2,-1,-4,-8
68176619963,-6,0,-2,-2,1,-2,-2,-7
68176634313,-7,0,2,-1,-3,1,0,0
68176634313,7,-3,-4,-5,-5,-5,-3,5
68176641132,0,-1,0,-1,0,1,-1,-2
68176641132,-1,-2,0,2,8,4,5,10
68176656833,-2,2,0,-2,1,0,0,3
68176656833,0,0,-1,0,0,-1,0,-7
68176663573,-5,0,-3,-1,-5,-3,-2,-6
68176663573,4,-1,6,-4,-5,-3,-3,16
68176671192,8,-3,-16,-2,-1,-1,0,-4
68176671192,-5,1,1,-1,-3,-2,-1,6
68176680001,4,0,-3,-3,0,-1,0,3
68176680001,9,-1,-3,-2,-4,-4,-4,-13
68176694271,-2,-5,8,4,-1,-2,-3,0
68176694271,-4,0,-4,2,2,1,1,8
68176708767,11,2,2,0,-1,0,-2,8
68176708767,-5,-3,-2,-1,1,4,4,1
