timestamp,emg1,emg2,emg3,emg4,emg5,emg6,emg7,emg8
67689482278,0,0,0,-1,0,-3,-1,0
67689482278,-2,0,-2,-1,-5,1,1,-3
67689482869,-1,1,0,1,8,0,-2,-1
67689482869,-1,-1,-1,-2,-1,0,0,-1
67689483830,-2,-2,-2,0,-1,0,-1,-3
67689483830,0,-1,-1,-1,-2,-3,-1,-1
67689484677,0,-1,0,-4,-6,-3,-3,0
67689484677,-1,-2,-1,-1,0,0,-1,-1
67689495130,0,-1,0,-3,-3,0,-1,-3
67689495130,0,0,-3,-1,1,-1,0,-1
67689504670,-1,-2,-3,-1,-1,1,1,-2
67689504670,-1,-3,-1,-2,-1,-3,-2,-3
67689510158,-2,-2,-2,-2,-2,0,-1,-2
67689510158,0,-1,-1,0,-1,-2,-1,1
67689525805,0,-1,-2,-1,0,-1,-1,-1
67689525805,-1,1,-1,0,-3,-2,-1,-3
67689533877,0,-1,1,1,1,0,-2,0
67689533877,-1,-3,-1,-1,0,1,1,-2
67689540352,-1,-2,-2,0,-2,-1,-1,-1
67689540352,-1,-1,0,0,0,-1,-2,-1
67689555087,0,0,-2,-1,1,0,1,0
67689555087,-2,0,0,-4,-5,-3,-5,-2
67689601861,-2,0,-1,-2,-1,-1,-1,-1
67689601861,0,-2,-2,0,0,-1,0,-1
67689602676,0,-1,-1,-2,-1,1,1,0
67689602676,0,-1,-2,-3,-2,-2,-3,-3
67689603674,0,0,1,-3,-3,-1,0,-1
67689603674,-1,-2,0,-2,-1,-2,-1,-1
67689604329,0,0,-2,-1,-3,-1,0,-1
67689604329,0,0,-2,0,-1,0,0,0
67689615111,-3,0,-2,0,-1,-1,-2,0
67689615111,0,-1,0,0,1,1,-1,-1
67689623258,0,-1,1,1,0,1,-1,-1
67689623258,-3,-2,-1,-2,-2,-2,-2,-1
67689630101,2,-1,-2,-2,-2,-5,-3,-1
67689630101,-1,0,-1,0,2,0,-1,1
67689645819,-3,-2,-1,-2,-5,-4,-2,-1
67689645819,-1,0,0,1,2,1,-4,0
67689652663,0,0,0,-2,0,-1,0,0
67689652663,-2,0,-3,-1,-4,0,1,-1
67689660083,-1,-2,-3,-2,2,-2,-2,-2
67689660083,-3,0,-1,-1,-2,0,2,0
67689675092,0,-2,-2,-2,-3,-2,-2,-3
67689675092,-1,-1,0,0,-1,-2,-4,-2
67689683297,-2,0,-1,0,-2,1,1,-1
67689683297,1,-1,-1,-3,-2,-2,-2,-3
67689690066,-1,-1,-2,0,-1,-1,0,-2
67689690066,0,-1,0,0,0,0,1,0
67689705697,-1,-1,-1,-2,0,0,-2,-2
67689705697,0,-1,-1,1,-3,-3,-1,0
67689712702,0,0,-1,1,0,-1,1,0
67689712702,0,1,-1,-2,-3,-1,-2,-2
67689719995,-2,1,1,-1,-1,-4,-2,0
67689719995,0,-1,-2,-1,2,5,4,-1
67689735132,-2,-2,-1,-1,-3,2,-4,-1
67689735132,-1,0,-1,0,-2,-2,-1,0
67689743309,0,-1,-1,-2,-7,-2,0,-1
67689743309,-1,-1,-1,-1,3,-1,-4,-1
67689749919,-1,-1,-2,-1,1,1,0,0
67689749919,0,-1,0,-2,0,-2,-3,-1
67689765873,1,-1,-1,-1,-2,-4,-5,-2
67689765873,-3,-3,-3,0,-1,2,2,0
67689772618,0,-1,-1,-1,0,-1,1,0
67689772618,-1,-1,-1,0,0,0,-1,0
67689780054,-1,-1,-1,0,1,1,2,0
67689780054,-1,-2,0,-1,-3,-3,-2,-2
67689795131,0,-3,1,-2,-4,-1,-2,-2
67689795131,-1,-2,-2,-2,-1,-1,2,-2
67689803047,0,-2,0,2,5,2,-1,-2
67689803047,-1,0,-3,1,-1,-2,-2,-1
67689810106,-2,-2,-3,-1,-1,1,0,0
67689810106,-1,-2,-1,-2,-1,-4,-1,-2
67689825972,-2,-1,-1,-1,-1,0,0,0
67689825972,1,-1,-1,-2,-1,-3,-3,-1
67689832621,-3,0,0,0,2,2,1,-1
67689832621,-1,-1,-3,-2,-4,-3,-3,-1
67689840028,-1,-2,-1,0,-6,-2,-1,1
67689840028,0,0,0,1,8,2,2,-1
67689854986,1,0,-1,-3,-3,-2,-1,-2
67689854986,0,0,-2,-1,-1,0,-1,0
67689863255,0,0,-1,-1,0,-1,-1,0
67689863255,0,-1,0,-2,-8,-5,-2,0
67689877517,-1,-2,0,3,3,2,-1,0
67689877517,-1,-2,0,-2,-2,-1,-1,0
67689885702,0,-2,-1,-2,0,-2,-2,-1
67689885702,-2,-2,-2,-2,-2,-1,1,-2
67689892378,-3,-1,-2,1,-2,-1,-1,-2
67689892378,-1,0,-1,-1,-1,-1,-2,-1
67689900082,-1,-2,-1,-1,-1,0,-2,-3
67689900082,-2,0,-1,-1,-3,-1,-1,-1
67689914940,0,0,0,-2,-1,-4,-1,-1
67689914940,-1,-1,-2,1,1,3,1,1
67689923053,0,-1,-2,-1,1,-1,0,-2
67689923053,-2,0,-1,-1,-2,-2,-3,-4
67689930034,-1,0,-1,-4,-3,-2,-2,-2
67689930034,0,-2,-1,1,0,-2,-1,-1
67689945766,0,-2,-1,1,1,-1,0,0
67689945766,1,-2,0,1,0,1,-1,1
67689952473,-1,-1,-2,1,-5,-1,-1,-2
67689952473,-2,1,-1,-1,6,0,0,-3
67689960111,0,-1,-1,-1,-1,-1,0,1
67689960111,-1,0,0,-2,-2,-2,-1,1
67689975076,0,-1,-2,-1,0,-2,-2,0
67689975076,-1,-1,0,0,-2,-1,0,1
67689983271,-2,-1,-2,-2,-2,-3,-2,-2
67689983271,-3,-1,0,-1,0,-1,-1,-2
67689989947,-2,-2,0,-1,-1,-1,1,-2
67689989947,-1,-2,-1,-2,0,3,3,1
67690005631,-1,1,-1,0,1,0,-2,-2
67690005631,-1,-2,-1,-3,-2,-1,0,1
67690012494,0,-2,-2,-2,-1,0,-1,-3
67690012494,-1,1,-1,-2,-2,-2,-1,-2
67690020056,-1,-2,-1,-1,-3,-1,-2,-1
67690020056,-2,0,-1,-1,0,0,0,-3
67690035009,-1,-2,-1,0,2,1,2,1
67690035009,1,-2,-1,-1,0,-1,-2,-1
67690043104,-2,0,-1,1,1,-1,-1,-1
67690043104,-1,-1,-2,-2,-3,-3,-3,-2
67690050049,0,0,-3,1,0,-2,-2,-1
67690050049,-2,0,-1,-2,-2,0,-1,0
67690066396,-1,-1,-2,-1,-2,-2,-1,-2
67690066396,-1,-2,-1,0,-3,2,0,-1
67690072459,-1,0,0,0,5,-1,-2,-1
67690072459,0,-1,-1,1,-2,-2,-1,0
67690087517,0,-1,0,0,1,1,0,0
67690087517,-1,0,-1,-1,0,0,0,0
67690095079,0,-2,0,-1,-4,-2,-2,-2
67690095079,-1,-1,1,0,-2,-5,-1,-1
67690103870,-1,1,-1,-3,-1,-2,-2,0
67690103870,0,-3,0,1,0,3,2,1
67690110073,-2,-1,-3,0,2,2,0,0
67690110073,-2,-2,0,0,0,1,-2,-2
67690126416,-1,0,-1,-1,-2,0,1,-2
67690126416,-1,-1,-1,0,-2,-3,-3,-2
67690132573,0,-1,0,-2,-4,0,-1,0
67690132573,0,-1,-2,-1,-2,-4,-2,-1
67690147389,0,-2,-1,0,-2,0,-1,1
67690147389,0,-2,-2,2,2,2,0,-2
67690155113,-1,-1,0,0,-2,-2,-1,0
67690155113,-1,-1,-2,-1,-2,-1,0,-1
67690163938,-2,-1,-2,-3,-1,0,-3,0
67690163938,-2,-2,-1,-2,-2,-5,-4,-3
67690170125,0,1,-1,-1,0,2,2,0
67690170125,0,-1,0,-3,-1,-1,-2,0
67690186502,-2,-1,-1,0,0,1,1,-1
67690186502,-1,-1,0,-1,-2,-2,-1,-1
67690192508,-2,-2,-1,-1,1,1,-1,-2
67690192508,0,-1,-1,0,-1,-1,-1,-1
67690207623,0,-2,-2,0,1,0,-1,-1
67690207623,0,1,-1,-3,-4,-5,-1,-1
67690215191,-2,-3,-1,-1,-3,-3,-4,-3
67690215191,-3,-1,-3,1,-2,-1,-1,-3
67690223939,0,0,-1,0,-1,-3,-1,-2
67690223939,0,-1,-1,0,-1,0,-2,1
67690230053,-1,-1,-1,-1,4,0,-2,-2
67690230053,-1,-2,-1,0,-2,-2,-1,-1
67690246388,1,2,1,-1,-1,0,1,-1
67690246388,0,-1,-1,-1,0,-1,1,1
67690252640,0,-1,-1,-3,-4,-3,-1,-1
67690252640,-1,0,-2,0,-2,-2,-2,-1
67690267409,-2,-2,-3,-5,-2,-2,-1,0
67690267409,-2,-2,-1,0,0,0,-1,-2
67690275137,-1,0,-1,-1,-1,-1,-1,0
67690275137,1,1,-1,-1,-1,0,-1,0
67690283890,-2,-4,-4,-2,-2,-2,1,-2
67690283890,0,-1,0,-1,1,0,1,-2
67690290065,0,-1,0,0,-3,-3,-1,-3
67690290065,-1,-1,0,-2,-2,-1,-1,-2
67690306373,-2,1,1,-1,-1,-2,-1,0
67690306373,-1,-1,0,0,2,0,0,0
67690312666,-1,-1,-1,-2,-1,1,1,-2
67690312666,-1,1,-1,0,-1,1,-1,-1
67690327624,-1,-1,1,-1,-3,-3,-1,-4
67690327624,0,-2,-10,-10,-5,-4,0,-2
67690335121,-1,0,0,2,1,0,-1,1
67690335121,-2,-4,1,-3,-1,0,-2,-2
67690343902,-2,-3,-2,5,-2,-1,-2,0
67690343902,1,-3,9,1,-4,0,0,0
67690350089,-6,-4,-8,-4,-1,-2,-1,-1
67690350089,3,3,-6,-3,-1,1,1,1
67690366460,0,2,6,4,2,1,-3,-2
67690366460,1,0,-7,8,0,1,2,1
67690372621,0,-2,5,-12,-8,-4,-4,-4
67690372621,-6,-4,3,4,1,-1,-2,-3
67690387576,3,4,1,4,3,0,2,3
67690387576,-3,-3,-12,-10,0,2,-2,-2
67690395148,3,-3,0,-6,-5,-5,-2,0
67690395148,-22,0,-9,-2,-1,0,1,2
67690403940,-4,-2,-13,-7,-3,-2,-3,-3
67690403940,-1,1,-8,-7,-2,-2,-1,2
67690410138,1,6,7,-4,1,1,3,9
67690410138,9,-7,-19,-12,-1,0,-2,-21
67690426482,-7,3,1,2,0,-2,-1,16
67690426482,-9,-1,9,-2,-2,-2,0,7
67690432734,19,0,10,18,1,1,-1,-4
67690432734,21,7,-2,-6,3,-2,1,4
67690447609,7,-8,1,-7,-5,-2,-3,-6
67690447609,-3,-3,1,-4,-5,-6,-5,-6
67690455089,-8,2,9,7,5,4,3,6
67690455089,-9,-6,-6,3,2,1,-1,-1
67690463892,5,-2,-1,-7,-2,-3,0,-1
67690463892,-1,-1,8,2,-2,-2,-1,-2
67690470080,-5,0,-10,1,1,-1,-1,-2
67690470080,4,0,26,15,2,1,0,4
67690486418,-6,0,-12,-13,-5,-1,0,-4
67690486418,-1,-3,-2,4,-1,0,-1,-4
67690492592,-3,-4,6,6,-1,0,-3,-4
67690492592,-1,2,2,-2,2,1,2,3
67690507665,-2,-6,-1,-6,-4,-2,-1,-1
67690507665,0,4,20,20,4,1,-1,-5
67690515133,-2,-6,-34,-15,-5,-4,-1,-1
67690515133,-1,2,9,-2,-3,-3,0,3
67690523941,-3,-2,5,1,-1,1,-1,-5
67690523941,2,1,-13,-7,0,0,-4,-1
67690537451,-5,-2,1,-2,-1,1,-2,-3
67690537451,-2,-2,-2,-2,-4,-2,-1,1
67690546410,-1,2,9,10,4,2,0,-2
67690546410,1,-3,-7,-10,-1,-2,0,-1
67690552684,-8,1,-5,-1,-1,-2,-3,0
67690552684,1,0,0,-5,-2,-1,1,4
67690568918,1,0,-14,0,-1,0,-2,-5
67690568918,0,2,-4,-5,-2,-1,-1,-1
67690575076,1,0,0,2,0,-1,0,-2
67690575076,-2,-2,-2,0,-3,-3,-2,-1
67690590105,-3,0,4,4,1,0,0,1
67690590105,-2,1,3,4,1,3,0,-1
67690597629,-5,-1,-6,-7,-3,-2,0,-2
67690597629,4,-1,-2,6,2,2,2,1
67690613089,12,-1,1,-1,-4,-2,-4,-1
67690613089,-7,0,-1,-3,-3,-4,-1,-1
67690613828,-5,0,5,-1,-2,-4,-4,-4
67690613828,7,-5,-2,-3,-4,-3,-2,0
67690628920,-1,2,13,3,4,1,-1,1
67690628920,0,-10,-36,-7,-2,-2,-1,-2
67690634943,-3,-2,15,5,0,-1,1,-1
67690634943,-9,-6,-2,-5,-4,-3,-4,-4
67690650090,1,1,0,0,-1,-1,0,-2
67690650090,0,2,4,1,1,1,1,2
67690657538,-1,-1,7,1,0,-1,-1,0
67690657538,-1,0,-12,-5,0,-2,-2,-2
67690673121,-4,-2,-4,-2,2,1,4,-1
67690673121,0,-1,6,2,0,2,0,-1
67690673984,4,1,-9,-2,-1,-3,-2,-1
67690673984,-7,-2,5,0,-2,-3,-2,-4
67690688825,-3,-2,-3,-1,-1,-2,-1,3
67690688825,1,-1,2,-1,-1,-2,-3,-5
67690695046,-1,1,-7,-5,-4,-1,-2,-1
67690695046,0,0,-3,-1,-1,-1,-2,-2
67690709954,-2,-1,-4,-1,-2,-2,-2,-2
67690709954,2,-2,5,1,0,1,0,0
67690717641,-3,0,-7,-8,-7,-6,-2,-1
67690717641,-2,0,-8,-2,2,3,3,-2
67690733261,-1,-1,-2,0,-1,0,-2,-4
67690733261,1,2,3,-1,-3,-3,-3,0
67690733866,0,1,2,2,0,2,1,-1
67690733866,-3,-1,-4,2,-1,2,-1,1
67690748908,-1,-2,-3,-3,0,1,1,-2
67690748908,-3,3,2,1,0,-1,-3,1
67690755113,2,-4,1,-1,-3,-3,-3,-8
67690755113,2,0,0,-3,-4,-7,-5,-3
67690770131,-3,-1,2,-2,-4,-2,-2,-3
67690770131,1,4,4,-1,-3,-2,0,-1
67690777371,1,-2,-16,-2,0,2,0,-2
67690777371,-4,-1,1,-1,-1,-1,-1,0
67690793298,-2,-2,3,5,1,-2,-1,-1
67690793298,2,0,-2,-3,-3,-2,-1,0
67690793887,2,-2,1,1,0,-2,-2,2
67690793887,-5,-1,2,0,-3,0,-1,-8
67690807660,0,1,-6,-1,2,1,0,3
67690807660,-2,-2,3,1,1,0,-1,-1
67690815139,-5,-5,-1,-1,1,-1,-1,0
67690815139,1,0,0,-1,-2,-2,-1,-1
67690830042,-2,-1,-4,-1,-8,-3,-1,-3
67690830042,-4,-2,0,4,15,4,4,3
67690837587,1,5,7,-6,-14,-8,-2,-3
67690837587,2,1,1,16,25,3,2,2
67690853140,-1,-2,-2,-1,-6,-1,-3,-3
67690853140,-2,4,-2,-6,-9,-6,-1,-1
67690853951,-1,-10,-1,3,8,4,1,0
67690853951,0,-3,-2,-3,-2,2,2,4
67690867404,-9,-1,1,-1,1,1,0,-8
67690867404,8,-4,-4,-1,-4,-3,-3,-2
67690875152,-3,2,-1,-3,-7,-1,-1,-1
67690875152,6,-2,1,-2,-9,-5,-1,3
67690889933,-3,-3,-7,0,6,2,2,-3
67690889933,-3,-3,-2,-6,-4,-3,-3,-3
67690897560,0,3,-1,1,3,2,2,0
67690897560,-1,4,0,-6,-11,-4,-3,-1
67690913325,-3,-10,-1,7,6,-2,-1,0
67690913325,-5,-1,-1,-1,-2,-2,0,-3
67690913876,5,1,-2,2,-1,-2,-4,3
67690913876,-6,-1,-2,-5,1,3,0,-2
67690927636,3,4,-1,-5,-4,-3,-4,2
67690927636,2,-2,-1,0,-1,0,-4,1
67690934978,-10,-4,-1,0,2,-2,-4,-4
67690934978,5,-1,-1,-2,-5,-1,2,0
67690950090,-2,0,0,-1,0,1,3,2
67690950090,-2,-2,0,2,0,0,0,-1
67690957444,1,3,-3,-1,1,-1,1,1
67690957444,0,-4,1,-1,-2,-2,-3,-1
67690973066,1,-1,1,-2,-2,-2,0,2
67690973066,-4,-1,0,2,-2,1,-2,-4
67690973893,0,1,-1,-2,-1,-2,-1,-1
67690973893,-6,-2,1,1,-1,-2,-2,-2
67690987403,0,0,0,-3,-2,-2,-1,0
67690987403,-2,-1,-1,-3,-1,-2,0,0
67690994969,-1,-1,-1,-1,1,0,-1,-1
67690994969,-2,-2,-2,1,-1,-1,-3,0
67691010062,0,0,1,-4,-3,-4,-3,-4
67691010062,1,-1,-2,-1,-2,0,-1,-3
67691017568,2,-3,-1,3,4,6,2,1
67691017568,-6,-1,-1,0,2,-1,-2,-2
67691033224,-1,-2,-1,-3,-3,-2,-1,0
67691033224,-1,-2,-1,-3,-2,-2,-1,-3
67691033942,1,-1,-2,-1,-1,-2,0,-1
67691033942,-1,1,-1,0,0,0,-1,-2
67691047571,0,0,0,1,-2,0,-1,0
67691047571,0,-2,-2,-3,-2,-1,-2,1
67691055044,-2,-1,-1,-3,1,-1,-2,-3
67691055044,1,-1,-3,-2,-1,-1,1,2
67691069940,-5,0,-2,-1,-2,-2,-2,-9
67691069940,0,-1,1,2,3,0,2,2
67691077412,0,-3,-2,-2,-2,-3,-3,-2
67691077412,-2,-1,-1,-2,-2,-1,0,-2
67691093228,1,0,0,0,2,4,1,1
67691093228,-1,-1,0,-3,0,-2,-1,1
67691093885,-2,0,-1,-1,-1,-3,-2,-1
67691093885,1,-1,0,-1,-3,0,0,-1
67691107458,-1,-2,0,-1,-3,-2,-2,-1
67691107458,-2,-3,-1,0,-1,-1,-2,-1
67691115113,0,-1,-3,-1,-1,1,0,1
67691115113,-2,0,-1,-2,-4,-2,-1,-4
67691130238,1,0,-2,0,-3,-2,-2,0
67691130238,-2,-1,0,2,0,0,-1,-1
67691137618,-1,-2,-1,0,1,1,-1,1
67691137618,0,-1,0,-1,-1,-1,0,-2
67691153342,-1,-1,-2,-2,-2,-1,-3,-2
67691153342,0,0,-1,-1,-3,-2,0,1
67691153895,-1,-2,-3,-1,-1,0,1,-1
67691153895,-4,-2,-1,-1,0,-1,-4,-1
67691167674,0,0,0,-1,-1,-1,1,-1
67691167674,-2,-2,-1,-2,-1,0,-1,-1
67691175145,-2,-1,2,-1,-2,-1,0,-1
67691175145,1,-2,-3,-1,-2,-2,0,-1
67691190087,-1,-1,-1,-1,0,0,0,3
67691190087,-2,-1,-4,-1,1,2,1,-1
67691197619,0,1,-1,0,0,-1,0,0
67691197619,-2,-1,-1,-2,-1,0,-1,-1
67691213012,0,-2,1,-1,-1,-1,-3,-3
67691213012,0,0,-2,-1,-2,-2,-1,0
67691213806,3,-1,-2,-1,-3,-1,-1,1
67691213806,-4,-1,-2,-2,-2,-3,-1,-8
67691227674,0,-1,-1,-2,-1,-3,-2,0
67691227674,-1,-2,-1,-1,-1,0,-3,-2
67691235133,-2,1,1,1,-1,-2,-1,-1
67691235133,-1,-3,-1,-2,0,-1,-2,1
67691250131,-1,-1,-2,-2,0,-1,0,0
67691250131,0,-2,-1,1,-1,-1,-1,-1
67691257593,-2,-1,-2,-1,-1,0,-3,-2
67691257593,1,0,0,-1,-2,0,-1,-2
67691273121,-2,-3,-2,-1,1,2,0,-1
67691273121,1,-1,0,-1,1,1,0,1
67691273845,0,-1,1,-1,-3,-1,-1,-1
67691273845,-1,-2,-2,0,-2,-1,-2,1
67691287567,0,0,2,2,-1,-1,0,-3
67691287567,-2,-3,-3,-5,-3,-3,-1,-2
67691295062,-1,1,-1,-3,0,-2,-3,-3
67691295062,-2,1,-1,1,0,1,0,1
67691309986,0,-2,-5,-1,-2,-1,0,-1
67691309986,0,-1,-1,-2,-2,-3,-3,-2
67691317619,-2,-2,-1,0,1,1,0,1
67691317619,-1,-2,-1,-2,-1,-2,-1,-1
67691333143,-2,-1,-2,0,0,-1,1,-1
67691333143,0,-2,-1,0,1,2,1,-1
67691333886,0,-1,-1,-4,-2,-3,-1,-1
67691333886,0,0,1,-2,0,0,-1,-2
67691347461,0,-1,0,-2,-3,-2,-3,0
67691347461,0,2,1,0,-2,-1,1,-1
67691355121,-2,-3,-1,-1,-2,1,1,-1
67691355121,-1,-1,-2,1,1,2,-1,2
67691370128,1,-1,0,-2,-2,-1,0,-1
67691370128,-1,-1,-1,-1,-1,-4,-3,2
67691377603,-5,-1,-2,0,1,0,-3,-8
67691377603,-1,-1,-1,1,-1,-2,-1,1
67691393273,-1,-2,-2,-3,-3,-2,-2,1
67691393273,1,0,-1,0,1,0,-2,-1
67691393867,0,-1,0,0,-2,0,1,1
67691393867,-1,-1,-2,-1,0,0,-1,-1
67691407663,0,0,-2,-3,1,-1,0,-2
67691407663,-2,-1,-1,-2,-3,-2,-2,-1
67691414880,-1,-1,-3,-3,-2,-3,-2,-1
67691414880,-1,0,0,-1,-2,-1,-1,-2
67691430123,-2,0,-1,0,0,1,1,0
67691430123,-1,-2,0,-1,-2,-2,0,-2
67691437417,1,-1,-2,1,0,-1,-1,-1
67691437417,-2,0,-1,-3,0,0,-1,-1
67691452530,0,0,0,0,-3,-3,-1,-2
67691452530,0,-1,-2,0,-2,-2,-2,-3
67691460797,-2,-1,1,0,1,1,0,2
67691460797,0,0,-1,1,1,2,0,-1
67691475793,-1,-3,-2,0,2,-1,-3,-2
67691475793,-1,-1,-2,-1,-2,-3,-1,-2
67691476427,1,-2,-2,-2,-2,-1,0,-2
67691476427,-2,0,-1,-2,-5,-4,0,-1
67691490141,-2,1,0,-1,1,-1,0,0
67691490141,-1,-1,-1,0,-1,0,0,-1
67691497465,-1,-1,0,-2,-1,1,0,-1
67691497465,-2,0,-1,-1,0,-2,-1,-1
67691512462,1,-1,-1,1,-2,-2,-3,2
67691512462,-1,0,-1,-3,-2,-2,-2,-2
67691520722,1,0,-2,0,0,0,-1,0
67691520722,-2,-1,-2,-2,1,0,0,1
67691535903,-1,-1,0,-4,-2,-1,0,0
67691535903,-1,0,-2,0,0,-1,-2,-2
67691536466,-1,-2,-1,-1,-3,-3,-1,-2
67691536466,0,-1,0,-1,-3,-3,-3,-1
67691550113,1,-1,-1,-1,-1,-1,0,-1
67691550113,-2,-1,-1,-1,0,1,1,0
67691557652,0,-1,-2,0,-2,-2,-1,0
67691557652,0,-2,-1,-1,-2,-2,-2,-1
67691572525,-1,-1,-1,0,-1,-1,-3,-2
67691572525,-1,-2,1,-3,-2,-3,-1,0
67691580663,0,-1,0,-1,-1,-2,0,0
67691580663,-2,-1,-1,1,1,1,0,-3
67691595871,-2,0,0,0,-2,-1,-2,-1
67691595871,0,0,-1,-1,-4,-1,-1,0
67691596429,-2,-1,0,-1,1,1,0,0
67691596429,0,-2,-2,-1,-5,-5,-3,-2
67691610009,-2,-2,-2,-1,0,-2,-1,-2
67691610009,0,-2,-1,1,2,2,-4,-1
67691617572,-1,-1,-3,-2,-3,-2,6,-1
67691617572,-2,0,-1,-1,-3,-1,-2,0
67691632612,0,-2,-1,-1,1,1,0,0
67691632612,-1,-1,0,-1,-1,-2,-1,-2
67691640816,0,-1,1,-1,-2,-2,-3,-1
67691640816,-1,-1,0,-2,0,-1,1,-1
67691655854,-2,-2,-3,-2,-2,-3,-2,-1
67691655854,-1,-1,-1,1,1,-2,0,-1
67691656473,-1,0,-1,-1,-1,2,-3,1
67691656473,-1,-2,-2,-1,-3,-2,-2,-1
67691670040,-1,-1,0,-1,0,1,-1,-1
67691670040,-2,-2,-3,-3,-1,0,0,-2
67691677576,-1,0,-2,-2,-2,-3,-3,-3
67691677576,3,0,-1,-1,-1,0,0,-1
67691692370,-1,-1,-1,-1,-1,-2,0,0
67691692370,0,0,0,0,-3,-1,-1,0
67691700631,-1,-2,-3,-1,-2,-2,-2,-1
67691700631,-2,-1,-1,-1,1,1,-1,-1
67691715732,-1,-2,-1,-1,-1,-1,2,-2
67691715732,0,0,-1,-1,-2,-1,1,1
67691716340,-1,-1,0,0,2,0,-1,0
67691716340,-1,-1,0,-2,-1,-2,-1,0
67691730095,-1,0,-1,-1,0,-1,-1,-1
67691730095,1,0,-1,0,-1,1,0,-2
67691737644,0,0,-2,-1,-1,-4,-4,0
67691737644,-1,-1,-1,0,1,0,2,-1
67691752626,1,-3,-2,-1,-1,-2,-1,-1
67691752626,-1,-2,-1,0,1,1,1,-1
67691760729,-1,-1,-2,-1,0,-1,-1,-3
67691760729,-2,-2,0,-1,-2,-1,-2,-2
67691775650,-1,-1,-2,-1,-3,-1,-2,-1
67691775650,-1,0,-1,-2,-2,-3,-3,-1
67691776502,-2,-2,1,0,1,1,3,2
67691776502,0,-1,1,-2,0,-1,0,0
67691790068,-1,0,-1,-2,1,1,-1,-1
67691790068,-1,-1,-2,-1,0,-3,-1,-1
67691797611,-1,-2,0,0,0,1,0,1
67691797611,-1,-1,-3,-2,-2,-2,-2,-1
67691812633,-2,-1,0,-2,-2,-2,-2,-1
67691812633,-3,-1,-3,-2,-2,-1,-1,-2
67691820655,0,0,-1,-1,-1,1,-1,-1
67691820655,-1,0,-1,1,0,0,0,-1
67691835711,1,-1,-2,-1,-2,-3,-2,-1
67691835711,-1,-1,1,-1,-3,-1,-2,-1
67691836335,-2,-1,-2,-1,-2,-2,-1,-1
67691836335,-2,-3,-1,-3,-2,-1,-1,-1
67691849956,0,-1,0,-1,0,1,1,0
67691849956,1,-2,1,-1,1,0,0,0
67691857668,-1,-1,-2,-1,0,-3,-2,1
67691857668,-1,-2,-1,-1,-2,0,-2,-1
67691872612,-2,-1,-2,-1,-1,0,-1,0
67691872612,0,-2,-2,0,-1,-3,-1,0
67691880816,0,-1,-2,-3,-2,-2,-3,-1
67691880816,-1,0,0,0,2,-1,1,0
67691895794,-2,-1,-1,0,1,1,-1,1
67691895794,-2,-2,-2,-1,-3,0,-3,-1
67691896376,-2,-2,0,1,-2,1,0,0
67691896376,0,-2,-2,-2,-1,-3,-1,-1
67691910108,0,0,0,1,-1,-3,-1,-2
67691910108,-2,-1,0,-2,-1,-1,-3,-1
67691917525,-1,-2,0,0,-1,1,-1,-3
67691917525,1,-2,0,0,0,1,3,1
67691932428,-3,-1,-2,-1,1,-2,-1,-1
67691932428,-2,-1,0,-2,-3,0,0,-3
67691940857,-1,-2,-1,-1,-2,-2,-2,-2
67691940857,-2,0,0,-2,-1,-2,-4,-2
67691955590,-2,-3,-1,-2,0,-1,2,0
67691955590,-1,-1,-1,1,2,0,-1,-2
67691956412,1,0,-1,0,-3,0,1,0
67691956412,-3,-1,-1,0,-2,-3,-2,-1
67691970037,-1,-1,-1,-2,-2,-2,-2,-1
67691970037,1,0,0,-1,3,0,1,-1
67691977671,0,0,0,0,0,-1,-3,-1
67691977671,-1,-1,0,0,-1,-1,-2,-1
67691992452,-1,-1,1,0,-2,-1,-3,0
67691992452,-1,1,-1,-1,-3,-2,-3,0
67692000811,-1,-2,0,0,0,-1,2,0
67692000811,-2,0,0,-1,0,-2,-2,0
