timestamp,emg1,emg2,emg3,emg4,emg5,emg6,emg7,emg8
52878337061,-25,-10,0,16,6,0,-4,-7
52878337061,13,-1,9,3,6,4,1,-2
52878338021,8,5,-3,1,3,2,0,1
52878338021,-51,-16,-2,-1,-2,-2,-5,-10
52878342646,28,3,-1,2,1,-2,-2,4
52878342646,-13,-8,-7,-5,-8,-3,-5,-11
52878344714,-10,-5,-7,-11,-6,-5,-2,-1
52878344714,19,2,0,-7,-2,1,1,2
52878349792,-3,-1,1,0,4,0,-1,-2
52878349792,3,-2,-4,-6,-5,1,2,2
52878356990,11,1,4,-7,-2,-4,-3,-3
52878356990,11,8,0,10,11,3,2,1
52878374782,-10,-1,0,6,3,3,0,-2
52878374782,-2,2,3,-3,0,0,0,3
52878378367,-11,-4,-6,2,4,0,-2,-2
52878378367,11,3,0,-14,-14,-2,0,2
52878397389,-3,-1,-2,-4,-3,-3,1,0
52878397389,0,2,-5,0,0,-1,2,-1
52878400780,0,1,4,7,3,1,0,0
52878400780,-1,-4,1,4,3,-1,-4,-4
52878412295,8,1,-4,-4,-2,-1,0,1
52878412295,6,2,-2,-5,-2,0,-2,2
52878424413,-22,-3,-1,1,-2,1,0,-2
52878424413,3,-2,-2,4,5,1,-2,2
52878464082,6,4,3,2,-3,0,0,1
52878464082,4,4,2,-2,-2,0,0,2
52878465391,-2,-3,-1,1,0,-1,-1,0
52878465391,-2,-2,0,0,-2,-2,-3,-6
52878465691,-4,-3,-3,-1,-3,-1,0,-1
52878465691,8,0,1,0,-2,0,-1,0
52878468812,5,2,1,4,3,-3,0,0
52878468812,-2,-1,-2,10,11,-3,1,0
52878475674,1,0,3,10,4,3,-1,-1
52878475674,0,0,4,4,8,8,1,3
52878483830,-2,-1,-5,-11,-2,0,-1,0
52878483830,3,0,-3,-14,-25,-7,-2,0
52878498165,-2,1,0,-4,8,-1,-1,-1
52878498165,0,1,3,0,-13,0,-2,0
52878506297,-7,-2,2,1,-5,-2,-2,-4
52878506297,5,1,0,4,9,1,0,1
52878513171,-3,-5,-8,-10,-13,1,-2,-3
52878513171,-4,-1,2,-1,20,-16,-11,-4
52878520671,1,0,5,-11,-30,-5,1,-1
52878520671,-4,-4,-4,1,11,2,-1,-1
52878535609,0,1,3,13,10,-1,-1,-1
52878535609,0,6,12,0,-13,-8,-2,-3
52878543820,-2,-9,-11,1,51,-1,-3,-1
52878543820,-10,-27,-93,-46,34,12,-4,-6
52878550607,-1,-5,0,-3,-28,-1,0,-1
52878550607,-6,-9,-15,4,57,6,1,-4
52878566307,6,12,19,35,-1,-2,1,3
52878566307,-2,6,19,-59,-19,-4,0,0
52878573167,-2,-1,3,41,10,3,0,0
52878573167,-1,-1,-5,8,12,6,0,-1
52878580579,1,0,2,-1,-18,-8,-1,-1
52878580579,8,11,26,21,-12,-5,-2,3
52878595653,-6,-7,-9,-20,3,-3,-3,-1
52878595653,-7,-12,-5,-11,-19,-1,1,-3
52878603839,-3,-5,-11,-4,17,9,2,-3
52878603839,-1,2,9,8,-10,1,-1,-3
52878610629,4,6,8,-11,-11,-9,0,-1
52878610629,0,1,2,10,-44,3,0,-2
52878626332,-1,-2,-10,-17,27,-7,0,-1
52878626332,-3,1,10,17,6,-1,0,0
52878633126,-3,-1,0,-7,-6,-7,-2,1
52878633126,-9,-6,-11,-11,-14,-1,0,-2
52878640688,-2,-2,0,-4,-6,0,-1,-1
52878640688,1,1,15,14,-5,-3,1,-1
52878655629,-2,-2,-3,-2,11,0,-1,-1
52878655629,1,1,-3,-9,-35,-10,-1,-1
52878663858,1,1,0,-5,-9,11,2,2
52878663858,-3,-1,1,12,21,1,0,-2
52878678115,-2,-3,-6,-9,2,6,-2,-2
52878678115,0,1,-1,0,15,11,-1,1
52878686322,-1,-1,4,-3,-23,-19,-1,0
52878686322,-2,-2,0,5,-3,1,-1,0
52878693130,2,3,8,-3,0,-1,-1,0
52878693130,-1,-4,-10,0,-4,-5,-1,1
52878700842,-2,-3,-7,3,7,10,0,-2
52878700842,-2,-2,0,-6,-17,-9,-1,0
52878715622,0,2,7,1,6,-2,-1,0
52878715622,3,5,6,1,8,-2,2,0
52878724493,-1,-3,-6,0,12,11,-1,-1
52878724493,-3,-4,-3,5,2,-4,-1,-2
52878730635,0,-4,3,-7,-16,2,0,-2
52878730635,-3,-8,-25,-1,17,-1,-1,-1
52878746357,0,6,5,-2,-8,-6,-4,0
52878746357,2,5,7,3,-1,8,2,0
52878753141,-2,-4,-4,-2,20,-1,-1,-1
52878753141,2,1,9,-4,-31,-9,-1,-3
52878760637,-3,-2,-3,0,8,3,-1,-2
52878760637,0,-1,-1,3,3,-2,-2,0
52878775657,-1,-2,-5,-2,6,-2,0,0
52878775657,0,1,5,-5,-14,-3,-3,1
52878783807,-3,-4,-2,-2,-15,-1,0,-2
52878783807,-1,0,4,3,2,0,-2,0
52878798154,-3,1,-7,-4,6,-1,1,1
52878798154,-3,-2,1,-4,-14,-6,-2,-1
52878822612,-2,-3,-2,-2,-11,-3,-1,-4
52878822612,2,-1,-1,0,-2,-1,-2,-2
52878824253,2,-1,-3,2,3,1,0,-4
52878824253,0,2,9,0,-7,2,0,1
52878825072,-2,-4,-12,-3,-1,-2,-1,-3
52878825072,-2,-3,-1,0,-4,-2,-2,-3
52878835625,0,-1,-1,-4,-7,-5,-3,-1
52878835625,0,0,4,2,18,5,-1,-1
52878844578,-1,0,9,-1,-11,1,-1,-1
52878844578,-3,2,-6,2,15,-2,-1,1
52878850604,-3,-2,0,-4,-21,-6,-1,-1
52878850604,-2,-1,-9,-3,11,0,1,-1
52878866324,-2,-1,-1,-1,-4,-1,-2,1
52878866324,0,-1,0,0,1,3,1,0
52878873143,-1,1,4,2,1,2,0,-2
52878873143,-2,-2,-1,-2,-5,-3,-1,-2
52878880597,-1,2,1,1,24,2,0,-1
52878880597,-4,-4,2,1,-5,-2,-2,-2
52878895645,-1,-1,6,-1,-10,-2,-1,-1
52878895645,-3,-11,-29,-7,1,1,-2,-2
52878903798,-1,0,-1,-1,-2,-3,-2,-1
52878903798,1,0,0,-2,0,-4,-2,0
52878910650,-1,-1,-4,-1,0,-1,-2,1
52878910650,0,2,7,-1,5,-2,1,0
52878926345,1,-1,0,1,-7,-2,-1,0
52878926345,0,0,-1,-1,-5,0,-2,-1
52878933118,1,-1,-4,-2,-12,-3,-1,0
52878933118,-1,0,6,3,18,2,0,0
52878940652,0,0,4,-5,-11,-3,0,-1
52878940652,0,0,-8,-1,-6,0,1,1
52878955617,0,-1,-6,0,-6,-1,-1,0
52878955617,-3,-2,3,1,-4,-5,0,-3
52878963800,-2,-3,0,-2,9,3,0,0
52878963800,-1,0,1,-2,-7,0,0,-1
52878970616,-1,0,3,0,2,0,-3,-2
52878970616,-1,-7,-13,-5,-5,-3,-2,-1
52878986341,-2,2,2,3,-2,-1,-1,-3
52878986341,-2,-2,1,0,-6,-2,0,-3
52878993126,-2,-4,-17,-1,10,1,0,0
52878993126,2,0,8,-1,0,0,-1,-1
52879000779,0,-2,-3,1,-8,-4,-2,0
52879000779,0,-2,7,-4,-2,-1,0,0
52879015575,-1,-1,0,-2,-1,-1,-1,-2
52879015575,-1,0,-1,0,0,-1,-1,1
52879023799,1,-5,-6,-4,-10,-5,-1,-2
52879023799,3,2,6,3,10,2,0,-1
52879030620,0,0,2,1,-1,0,0,1
52879030620,0,-3,2,2,7,2,0,-1
52879046323,2,0,0,-3,-31,-3,1,2
52879046323,-1,-4,-7,-2,4,0,0,0
52879053060,-1,-1,-2,-3,-5,0,0,-2
52879053060,-1,1,7,0,1,-2,-1,0
52879060590,-1,1,-6,0,-1,-2,-1,0
52879060590,0,-2,0,-1,-6,-2,-2,-2
52879075625,-2,3,-1,-1,6,0,-1,-1
52879075625,-2,0,3,-1,-3,-1,-3,-3
52879083823,-1,-3,-3,0,19,5,0,-1
52879083823,-1,0,-3,-4,-22,-2,0,-1
52879098092,3,0,3,-2,1,0,-1,-1
52879098092,-2,-1,-8,-2,-1,-3,1,2
52879106294,-2,1,4,-1,1,-1,-1,-1
52879106294,-2,-1,-5,-1,-2,-1,0,-1
52879113098,-3,-2,-2,0,6,-1,-2,-2
52879113098,1,1,3,0,-4,-2,0,-2
52879128777,-2,-4,-3,-1,6,5,0,1
52879128777,-1,-1,5,-1,0,-1,-1,0
52879135603,1,0,1,1,1,1,-2,0
52879135603,-1,-2,-4,0,10,0,-1,0
52879143793,-3,0,-3,-1,-14,-4,-2,-2
52879143793,-1,-2,-1,-3,-5,-2,-1,-1
52879150581,-4,-1,-5,-1,7,-1,-2,-1
52879150581,0,0,-1,-2,-11,-3,-1,-1
52879166331,-1,0,0,0,-1,-5,-3,0
52879166331,-1,0,-3,0,4,3,0,0
52879173135,-3,-7,-5,-3,-3,-2,-1,-1
52879173135,1,3,4,1,1,1,-1,0
52879188769,0,-2,-1,-1,-10,-4,-1,-3
52879188769,2,-1,3,-3,18,2,0,-1
52879195572,-4,-1,-2,3,19,0,-1,-3
52879195572,1,3,8,2,-1,1,-1,-2
52879204191,-1,-2,-7,-3,-2,-1,0,-3
52879204191,-2,-4,-7,-2,-5,-3,-2,-3
52879212117,1,-1,-4,-3,-8,-1,-1,-1
52879212117,1,1,4,-2,-6,-1,-2,0
52879233756,-3,-1,-3,2,15,0,0,-1
52879233756,1,2,5,0,-8,-3,-3,-1
52879234500,0,-4,-13,-4,-7,-2,-1,0
52879234500,-3,-3,-4,-3,-3,-3,-4,-2
52879249571,0,0,1,0,1,-1,-2,0
52879249571,-2,-2,-1,0,-7,-3,-1,1
52879264454,1,-1,4,0,-7,-2,-2,-1
52879264454,-1,-1,3,1,3,-1,-1,-2
52879266057,0,-2,-7,-2,1,-2,-2,-2
52879266057,-1,-1,-2,-1,0,-1,-1,-1
52879270586,-2,0,9,-1,-9,-2,-1,0
52879270586,0,-1,-5,-2,4,0,-2,-2
52879287111,-1,-1,1,-2,-5,-1,0,-2
52879287111,-2,-1,0,-1,-5,-3,-2,-2
52879293097,0,-1,2,-2,-4,2,2,-2
52879293097,-1,0,-1,-1,-13,-1,2,-1
52879309598,-1,-1,2,1,14,-1,-2,0
52879309598,-2,-6,-13,-2,1,4,-1,-1
52879315583,-1,-1,1,0,9,0,-1,0
52879315583,-2,-1,4,1,-6,-2,-2,-2
52879324616,-1,0,-5,-2,-6,-2,0,-2
52879324616,0,0,-3,-2,-5,-5,-1,-3
52879330593,1,0,-2,0,5,-1,-1,-1
52879330593,-2,-2,-3,-3,1,0,-2,-1
52879347196,0,2,7,0,-5,-1,0,-1
52879347196,-3,-2,-1,0,8,-2,-2,-1
52879353157,0,0,-1,-2,-7,-3,1,-3
52879353157,1,0,-1,0,4,-2,0,-2
52879377703,1,4,9,1,-3,0,-1,1
52879377703,-4,-8,-15,-4,-2,-2,-2,-1
52879378543,-1,1,-2,1,-3,-3,-2,0
52879378543,-1,-3,-4,-1,3,-1,-1,-2
52879384573,-2,-2,3,-1,6,0,-1,-2
52879384573,-1,3,15,3,-3,-1,-2,0
52879390546,-3,-4,-16,-4,-3,-2,-2,-2
52879390546,1,-1,-6,-2,-1,0,-2,-2
52879407059,1,0,-2,-1,-1,-1,-2,0
52879407059,-2,0,2,1,1,-1,-1,0
52879413132,-1,-1,1,-1,-5,-1,-1,0
52879413132,-2,-1,4,2,-1,0,-1,1
52879429878,-2,-2,-7,-4,-7,-4,-1,-2
52879429878,2,1,1,-1,-10,0,-1,-1
52879435624,-1,-1,-1,-2,8,1,0,-2
52879435624,-3,0,-3,1,5,1,-1,-2
52879450569,-3,-1,4,0,-1,0,0,-1
52879450569,-1,-6,-19,-4,-7,-3,-1,-2
52879458128,0,2,3,0,-6,-1,-2,-2
52879458128,2,1,3,-1,1,-2,-1,-2
52879473555,0,0,-3,0,1,1,-1,-2
52879473555,-1,-4,2,-2,-3,-1,1,-1
52879480624,1,-1,3,0,-7,-1,-1,0
52879480624,-3,-3,-3,-2,-3,-1,0,0
52879489629,-1,-2,-3,-1,-10,0,-1,0
52879489629,1,3,2,1,8,0,-1,-1
52879495558,-2,-2,-1,1,-1,-1,0,0
52879495558,0,0,4,-3,-1,-2,-1,-1
52879510597,0,-1,-5,-5,-2,-3,1,-1
52879510597,-4,1,1,-1,0,-2,0,-1
52879526952,-2,-1,1,-3,1,-2,-1,0
52879526952,-2,-1,-6,-2,0,0,0,-1
52879528586,1,-3,1,1,-1,-1,-2,-3
52879528586,-1,0,1,-1,-1,-2,0,-2
52879533075,-1,-1,3,0,5,-1,-2,-1
52879533075,-2,-2,-3,0,-8,-2,0,0
52879549568,0,0,-4,-4,1,-1,-2,0
52879549568,1,0,4,2,0,-2,1,0
52879555561,-1,0,-1,-1,-3,-3,0,0
52879555561,0,1,2,-1,4,0,-2,-1
52879572070,-3,-7,-17,-4,1,-2,-1,-2
52879572070,2,2,3,-1,-6,-1,-1,0
52879578103,-1,-6,-6,0,3,-1,-1,-2
52879578103,0,-1,1,-2,-3,-2,-2,0
52879593541,-3,0,0,0,4,-1,0,-2
52879593541,-2,-1,0,-2,-4,-2,-2,-1
52879617629,-1,-1,-1,-3,-2,-1,0,0
52879617629,-2,0,0,-1,-1,0,0,-1
52879619231,-1,-2,0,0,0,-1,-2,-1
52879619231,0,-3,-5,-1,0,2,-2,-2
52879620046,1,-2,4,0,2,-1,-1,-1
52879620046,0,-4,-3,-2,-11,-4,-1,0
52879638738,-1,3,3,-3,-12,-2,1,0
52879638738,-3,-2,0,-1,0,0,-2,-1
52879639520,-2,-1,-3,-1,-3,0,-1,-2
52879639520,-1,-2,2,1,10,0,-1,0
52879653750,1,0,2,-1,-2,-1,-1,-1
52879653750,-1,0,-3,-2,-5,-4,-2,0
52879654534,0,4,12,1,11,1,-1,-2
52879654534,-1,-4,-19,0,-12,-3,-2,1
52879669076,1,-3,-4,-4,18,3,-1,0
52879669076,0,-1,0,-1,-4,-2,-1,-1
52879675615,-1,0,-3,-2,6,0,-2,1
52879675615,0,3,5,0,-1,0,-2,0
52879692263,0,-1,5,1,-2,0,-2,0
52879692263,-2,-3,-1,-2,2,-1,1,0
52879698072,1,0,-2,0,-8,-1,0,-3
52879698072,0,-2,3,-1,-2,0,1,-2
52879713732,0,1,2,1,4,-2,-1,-2
52879713732,1,-1,2,-2,-6,-3,-2,0
52879714525,-3,-1,-4,-1,-9,-2,-1,1
52879714525,0,-1,-4,-3,5,0,-1,0
52879729571,-3,-3,-1,-1,-2,0,-2,-1
52879729571,0,-1,-4,-1,4,-1,1,-2
52879735538,0,-1,-1,0,-2,-1,0,-2
52879735538,-3,-2,-3,-1,-14,0,-2,0
52879752168,2,0,0,0,-4,0,0,1
52879752168,-4,-1,1,0,6,1,-2,0
52879758058,1,-1,-1,-1,-9,-4,2,1
52879758058,2,3,6,-1,3,-1,-1,-2
52879773764,-4,-9,-15,-3,-8,-5,0,-3
52879773764,-1,-1,-1,2,-1,-1,-1,0
52879774478,-1,0,-5,-2,1,0,-3,-2
52879774478,1,0,3,-1,5,-2,-1,0
52879788065,-1,1,8,1,-5,-1,1,0
52879788065,0,0,2,-1,9,-1,-2,0
52879795578,-1,-1,-2,-2,-4,-1,-1,1
52879795578,1,-1,-5,-1,3,0,-1,-1
52879810573,0,0,-3,0,2,0,-2,0
52879810573,0,-1,2,-1,-5,1,-1,-2
52879818076,-1,1,0,-3,-1,1,0,2
52879818076,-1,0,-4,-2,0,-1,-2,0
52879833728,-3,-2,-3,-3,-2,-1,-3,1
52879833728,3,-1,-1,1,7,0,-1,-1
52879834527,0,-3,1,0,-9,-2,-1,-1
52879834527,-4,-5,-9,-4,-13,-1,-2,-3
52879848095,0,3,12,2,10,-1,0,0
52879848095,-2,-3,-8,-2,1,-1,-1,-2
52879855597,-1,1,-2,-1,4,-2,-1,-3
52879855597,-5,-3,-3,1,3,0,0,-1
