timestamp,emg1,emg2,emg3,emg4,emg5,emg6,emg7,emg8
68224830625,-1,-1,-1,-1,0,1,-3,0
68224830625,-3,-3,0,-2,-1,0,0,0
68224831283,-1,-1,0,-1,-2,-3,-4,-2
68224831283,-1,0,-1,0,0,0,0,0
68224832322,1,-2,-1,0,0,0,0,0
68224832322,0,5,0,-1,0,2,1,0
68224832948,-1,-4,-1,-2,-2,-3,-3,2
68224832948,-1,-6,-1,-1,-1,0,-1,-1
68224843826,-1,2,-2,-3,-1,-1,-3,-1
68224843826,-2,-3,-1,-2,-4,-4,-3,-1
68224853055,-1,3,-1,-1,-2,1,3,-2
68224853055,-2,-3,-2,-1,0,-3,-3,-2
68224858708,-1,-1,1,-1,1,0,1,-1
68224858708,-3,1,-1,-1,0,-2,-2,-3
68224874482,0,1,-1,0,2,0,1,-1
68224874482,-2,1,0,-2,-3,-1,-3,-2
68224882433,-2,-3,-2,-2,0,-2,-1,-2
68224882433,-1,0,-1,-1,-1,3,0,-2
68224888808,1,0,0,-3,-1,-3,-2,0
68224888808,-1,1,0,1,2,0,0,-1
68224903800,-1,-3,-2,-2,1,-1,1,0
68224903800,1,-2,0,0,0,2,-4,-1
68224912214,-3,-2,-2,-1,-3,0,-2,-2
68224912214,0,-4,-3,-2,-3,-1,-1,-2
68224951813,1,0,0,-1,-2,-3,-1,-1
68224951813,-1,1,0,1,0,0,0,0
68224952732,-2,-2,-3,-4,-6,-4,-4,-2
68224952732,-2,-1,0,2,5,4,2,0
68224953411,0,0,0,-1,2,0,-1,0
68224953411,-2,-4,-2,-3,0,-4,-2,-2
68224956676,0,-1,-2,-2,-2,-2,0,-1
68224956676,1,1,-1,-1,-3,-4,-3,-1
68224963324,-1,-2,1,1,-3,0,-1,-1
68224963324,-3,-3,-2,-2,0,0,-2,-2
68224971719,-1,2,0,-1,-1,-1,-3,0
68224971719,0,-2,-3,-2,-1,-2,-1,-1
68224978377,0,0,-2,-1,3,2,0,1
68224978377,0,1,0,-1,-3,-1,-1,-1
68224994203,-1,-1,1,-2,-4,-4,-1,-2
68224994203,-1,1,-2,-1,-1,-3,0,-2
68225000854,0,-1,0,2,-1,-1,1,-1
68225000854,0,-1,1,-1,0,0,0,1
68225008530,-2,-6,-4,-4,-1,-3,1,1
68225008530,-2,-1,-1,0,-1,-1,-4,-1
68225023525,-3,-3,-1,-2,0,1,0,0
68225023525,0,-3,-2,-2,-2,-2,-2,0
68225031732,1,4,1,0,1,0,-1,-1
68225031732,-1,-1,-1,0,0,-1,0,0
68225038565,-1,-2,-5,-6,-4,-4,-4,-2
68225038565,-1,0,-1,0,1,1,1,0
68225054257,0,-1,-1,-2,-3,-1,-3,0
68225054257,-3,-2,-1,0,1,2,2,0
68225060894,-2,0,-2,0,-3,-5,-2,-2
68225060894,-2,-1,-1,-1,-3,-3,0,-2
68225068355,0,0,-3,1,-1,-1,-1,-2
68225068355,-1,-6,-5,-6,-4,-3,-1,-1
68225083579,-1,0,-2,-1,-2,-1,-1,-1
68225083579,0,0,-2,0,-3,-3,-3,-2
68225091767,-3,-1,0,3,1,1,0,0
68225091767,-1,4,1,-3,0,-1,-2,0
68225098552,-3,-2,-1,-2,1,0,1,-1
68225098552,-1,-3,-3,-3,-1,-1,-2,0
68225114056,0,-2,-1,2,1,2,0,0
68225114056,-1,-1,1,0,-2,-1,-1,-2
68225120922,-1,-1,0,-1,0,0,-1,-3
68225120922,0,0,1,0,-1,0,0,-2
68225128487,0,2,0,-1,1,-2,-1,0
68225128487,0,-1,-1,0,-2,-2,-2,-2
68225143533,0,-2,-2,-1,-2,-2,-4,-1
68225143533,-1,-1,0,0,2,2,2,0
68225151764,-2,-2,-4,0,1,1,1,-1
68225151764,0,-2,-3,-2,-3,-2,-2,-1
68225158378,1,1,1,0,-4,-2,-4,-1
68225158378,-1,-3,-2,1,1,-1,-1,-1
68225174259,0,-3,1,0,-1,-1,0,0
68225174259,0,-4,-2,-2,0,0,0,0
68225180981,-3,4,-2,-1,0,0,1,1
68225180981,-2,0,0,1,-3,-1,-1,-2
68225188398,-1,-2,-3,-4,-4,-1,-2,-2
68225188398,2,1,-8,-3,1,1,2,-1
68225203557,-1,-5,15,4,-2,-3,-2,-1
68225203557,-2,2,-3,-2,0,0,1,1
68225211623,-3,-5,-3,-1,-2,-3,-2,-2
68225211623,-2,-3,0,-9,-3,0,0,0
68225218529,2,3,-4,1,4,5,2,2
68225218529,1,1,-10,1,-1,-1,-2,-1
68225234285,0,1,-7,-14,-4,-4,-4,1
68225234285,3,-2,-3,5,-2,-2,-2,-3
68225240943,-8,-3,3,-2,1,1,0,-4
68225240943,-15,-7,-10,-6,-4,-3,-4,-9
68225248577,14,1,-9,-16,2,2,2,4
68225248577,16,0,10,13,-4,-3,-3,3
68225263563,-4,3,-6,-3,3,2,1,4
68225263563,2,-1,0,9,-4,-1,-3,-6
68225271745,-11,-1,-8,7,3,2,0,-2
68225271745,-6,-1,-1,-9,2,2,-1,-1
68225278392,6,-1,-2,0,0,-2,-3,4
68225278392,-1,-2,1,5,-1,-2,1,-5
68225294297,3,0,3,-14,-5,-2,-2,2
68225294297,-7,2,7,8,0,-1,-2,1
68225300939,-9,-4,29,32,-2,-2,-5,-10
68225300939,13,-2,-18,-36,-5,-1,-3,5
68225308523,-5,2,17,25,1,0,4,-4
68225308523,-1,-5,-18,-23,-6,-2,0,-5
68225323532,-15,-7,-30,-20,-6,-8,-8,-14
68225323532,14,6,24,26,11,9,5,4
68225331626,11,6,17,4,2,1,3,0
68225331626,-6,-3,0,22,-1,-1,-2,9
68225338578,-8,-5,-20,-16,-5,-3,1,-27
68225338578,-19,2,23,11,2,0,-3,1
68225354095,0,-9,-45,-20,-4,-1,-2,6
68225354095,-5,4,23,6,2,-2,1,-10
68225361026,8,1,-15,-2,1,2,0,10
68225361026,0,1,9,-12,-3,-3,0,-2
68225376753,-4,-8,-15,-5,-4,-2,-1,-13
68225376753,1,2,3,9,3,1,0,1
68225383566,-2,-2,-13,-12,-7,-3,0,6
68225383566,-6,-1,0,6,2,-1,1,-2
68225391783,-8,-2,15,7,-3,-5,-3,-3
68225391783,5,-1,-13,-8,1,1,-2,-1
68225398588,11,3,16,14,3,4,2,7
68225398588,3,-1,-10,3,-1,-2,0,1
68225414224,2,-1,-5,-7,-2,-1,0,-1
68225414224,-2,-3,6,8,-1,-2,-2,-2
68225420891,2,1,11,-7,-1,1,1,4
68225420891,-2,0,-5,-7,-5,-3,-4,0
68225436763,-2,4,15,14,2,1,-3,-2
68225436763,-2,-6,-9,-8,-2,0,1,-1
68225443432,-5,-4,-6,-1,-3,-1,1,1
68225443432,5,1,0,-2,0,0,-2,0
68225451576,-1,1,12,5,2,2,0,1
68225451576,-4,0,3,-5,-4,-3,-2,-4
68225458586,-3,3,9,7,0,0,-2,-4
68225458586,9,-3,-19,-9,-3,-2,1,2
68225474066,-4,-1,4,0,-1,-3,-5,-1
68225474066,-2,-1,-6,-7,-1,-2,-1,-1
68225480935,3,0,0,3,2,4,2,2
68225480935,-6,-2,13,4,0,-1,-2,-2
68225496723,-6,-6,-13,-10,-6,-3,0,-4
68225496723,1,-2,12,-2,-3,-1,-4,1
68225503484,5,0,-17,-1,3,2,3,7
68225503484,-10,-5,-4,-3,-3,-3,-3,-11
68225511002,1,3,7,10,3,1,-2,3
68225511002,-4,-4,2,-2,-3,-4,-3,-2
68225519859,5,4,10,0,-3,-2,-3,2
68225519859,-4,0,6,2,-1,2,1,3
68225534177,-3,-2,-19,-5,-3,0,0,-2
68225534177,-5,-5,-13,-4,2,5,1,-3
68225540930,0,0,0,0,-2,-3,-2,-2
68225540930,0,-4,2,4,-5,-1,-2,0
68225557344,1,1,-2,-4,2,-1,-2,0
68225557344,-1,3,9,3,-1,0,1,0
68225563532,-2,-4,0,-8,-3,-2,-1,-1
68225563532,-1,-1,-5,0,0,2,-2,0
68225579002,-1,-2,-3,1,-1,-1,0,-1
68225579002,-1,-5,-29,-11,-1,-2,-1,-1
68225579755,-2,0,-1,-1,-6,-7,-5,-1
68225579755,-2,1,-2,-3,4,5,1,-2
68225594852,-2,1,9,5,3,1,-1,2
68225594852,-2,2,-8,1,-2,1,1,0
68225601009,-9,-6,0,-2,1,-1,-2,-13
68225601009,11,1,-12,-7,-7,-4,-2,3
68225617344,0,0,7,1,-1,-3,-2,-2
68225617344,-2,1,-2,-1,0,1,-2,-1
68225623417,1,-3,-27,-12,-2,-1,-1,1
68225623417,-8,-1,2,-2,-3,-3,-2,-5
68225638487,-3,-4,7,4,-1,1,0,-4
68225638487,5,0,-4,-2,-4,-3,-2,1
68225646009,1,1,11,8,-1,0,0,0
68225646009,-3,-1,-4,-7,1,0,0,-1
68225654850,0,-4,-4,-2,-3,-1,-2,0
68225654850,-2,0,-1,-4,-2,-3,-2,0
68225660905,1,-1,-5,-7,3,2,-1,0
68225660905,-1,0,0,2,1,0,0,-2
68225677394,-3,-5,7,-1,-3,-3,-2,-2
68225677394,-2,1,-2,0,1,-1,-1,-2
68225683591,3,-3,15,3,-3,-2,-1,4
68225683591,-3,0,6,0,-1,-2,-2,-6
68225698520,3,2,-7,-3,-1,0,-2,0
68225698520,-12,-2,5,4,0,1,-1,-4
68225705885,11,-2,-6,-2,1,-2,-2,5
68225705885,-3,-3,-3,1,1,0,-1,1
68225714856,-1,-2,-2,-1,0,0,1,-2
68225714856,3,4,4,-2,-1,-2,-2,-1
68225721017,-4,-7,-4,1,0,0,1,-2
68225721017,-2,3,4,-3,-3,-2,-4,1
68225737372,-1,-5,-6,-3,-2,-2,-1,-4
68225737372,-2,-4,6,-3,-6,-3,-1,2
68225743521,-5,1,-10,2,2,0,1,-1
68225743521,1,-3,-4,0,-1,-3,-1,-1
68225758567,-2,-2,-5,-9,-5,-1,0,1
68225758567,-2,1,1,4,0,-4,-4,-4
68225765874,0,-2,3,-2,-2,1,0,-2
68225765874,0,-2,-4,0,4,1,1,-1
68225774812,1,5,1,1,-5,-3,0,2
68225774812,2,-2,-3,-2,-4,-2,-2,-3
68225781065,5,6,17,1,6,3,-6,-10
68225781065,-7,7,10,1,1,4,6,7
68225797428,-3,-4,-9,-2,-2,-5,-5,3
68225797428,0,-10,-3,-1,-2,0,-1,0
68225803529,1,5,4,-1,-2,-2,-1,1
68225803529,0,-5,-10,-13,-12,-5,-6,-4
68225818506,1,-2,7,12,8,6,4,0
68225818506,-3,-3,-4,-8,-3,-3,-1,1
68225825873,-8,-3,-1,-2,-3,-1,-1,-1
68225825873,4,-1,-2,-2,-6,0,1,0
68225834882,-3,1,-3,-3,-3,-1,-2,1
68225834882,3,0,7,3,1,2,0,-5
68225840988,-1,-8,0,-2,-2,-2,-1,1
68225840988,0,-1,-15,1,5,0,-7,-5
68225857367,-2,1,14,-5,-4,-5,-6,-5
68225857367,-2,4,2,2,2,-2,-2,3
68225863558,2,4,-3,-2,-3,-2,-1,5
68225863558,-6,-16,-12,-2,-3,-5,-2,-2
68225872401,-2,0,-4,-4,-4,-5,-7,-5
68225872401,-4,-7,-2,-4,-1,4,9,-4
68225885895,-9,0,-1,4,7,6,3,8
68225885895,13,0,2,0,0,-3,0,12
68225894840,-9,0,1,2,1,0,-4,-7
68225894840,4,0,-6,-3,-4,-3,-2,-20
68225901003,-5,1,-1,1,1,-3,-3,7
68225901003,-1,2,1,1,1,3,5,6
68225917214,5,4,-3,-2,1,-1,-1,-1
68225917214,-3,0,2,2,-1,1,-1,1
68225923348,-6,-4,-6,-2,-3,-2,1,-5
68225923348,-2,1,7,1,0,-1,-7,-7
68225938451,2,-2,-1,-3,-2,-1,2,3
68225938451,4,3,-5,0,2,-1,-1,5
68225946089,2,-3,-2,-1,0,-4,-1,-4
68225946089,-4,-5,0,-2,-1,-3,-2,-4
68225961619,0,-1,-3,-1,3,2,2,-2
68225961619,1,-1,-1,-1,2,0,1,7
68225962337,-1,-2,0,-2,-5,-3,-3,-6
68225962337,-3,4,1,-1,1,1,0,-4
68225977365,-1,-3,-2,0,1,5,4,4
68225977365,-7,-5,-1,-1,-1,-3,-6,-5
68225983327,4,0,-1,-3,-2,-2,-2,-1
68225983327,-4,0,0,2,0,-1,2,-1
68225998322,2,-1,-2,-2,-1,-1,-2,1
68225998322,0,-2,0,1,0,1,0,1
68226005764,-1,0,-4,-2,-5,-3,-2,-6
68226005764,-3,-2,-1,2,-1,-1,0,0
68226021506,-2,-2,-1,1,1,2,0,-1
68226021506,-2,2,0,-1,-1,-1,-3,1
68226022168,-5,-2,-1,-1,-2,0,3,3
68226022168,3,1,0,-2,-2,-3,-5,-5
68226037358,-2,-2,-1,1,0,-1,-3,0
68226037358,4,-2,-2,-2,-1,-1,-1,2
68226043528,-7,-2,0,1,1,1,0,0
68226043528,0,0,-1,-1,-1,-1,1,1
68226058512,-1,0,-1,-2,0,0,-1,-5
68226058512,-1,1,-2,-2,-2,-2,2,3
68226065812,-2,2,0,0,-1,-1,0,-3
68226065812,-5,-6,-2,-3,-1,-1,-2,-2
68226081707,6,0,-2,-1,-1,-2,-1,0
68226081707,0,0,0,0,-3,-1,-1,0
68226082202,1,1,1,-1,0,-1,-1,-4
68226082202,-2,-2,-2,0,-1,-2,-1,-2
68226097390,-4,1,-1,-1,-1,-1,-5,-1
68226097390,1,-5,-1,1,0,-1,-1,1
68226103277,1,1,1,-1,-2,-2,-2,-3
68226103277,-3,-1,0,0,2,3,2,1
68226118334,0,-2,0,-3,-1,-1,0,-1
68226118334,0,4,2,1,2,1,0,1
68226125992,-1,-4,-3,-4,-2,-2,-4,-2
68226125992,1,-1,-5,-2,-1,-3,0,3
68226141738,-11,-2,-1,0,-1,0,0,-10
68226141738,9,-1,0,2,1,1,0,3
68226142299,-2,-2,-1,0,-1,0,0,-1
68226142299,1,1,1,0,-2,-1,-1,-1
68226157403,-2,-3,-3,-2,-4,-3,1,-1
68226157403,-6,-2,-1,-1,1,1,-1,1
68226163320,-1,-3,-3,-5,-2,-1,-3,-7
68226163320,2,-2,-1,0,-1,-3,-1,-4
68226178494,2,0,-1,2,0,0,2,6
68226178494,-2,-1,0,-1,0,-1,-2,-5
68226186049,3,-2,-1,0,-2,-2,1,4
68226186049,-1,-1,-2,-1,-2,-2,-1,3
68226201439,1,0,-2,-1,-1,-2,-4,-6
68226201439,-6,-1,-3,-3,-3,-2,-1,0
68226202386,-8,-1,0,1,1,0,-1,-5
68226202386,6,1,0,-2,-2,0,-1,4
68226217387,5,-6,-1,-2,0,-2,0,4
68226217387,0,0,-2,-3,-4,-2,-2,-2
68226223449,1,-2,0,-1,-2,-3,-2,-4
68226223449,-4,0,-2,0,1,-1,-1,-3
68226238507,0,-1,1,-1,0,0,-1,1
68226238507,-1,-3,-4,0,1,-2,-1,-1
68226245969,0,0,-1,-1,-1,0,-2,1
68226245969,-3,0,0,-3,-3,-2,-5,-4
68226261457,-2,-3,-3,-2,-3,-2,1,0
68226261457,-1,0,0,-1,-1,-1,0,0
68226262239,1,-2,0,1,0,0,1,1
68226262239,0,-2,0,-1,-1,-2,-1,-2
68226275999,-6,0,-1,0,-1,-2,-2,-2
68226275999,0,2,-1,-1,-2,0,-1,2
68226283464,2,-2,-2,-2,-3,-3,-4,-4
68226283464,-4,-2,-3,0,-1,1,-1,-1
68226298537,-4,0,0,3,4,1,-1,-1
68226298537,1,0,1,-1,-2,-4,-2,-3
68226306027,0,0,1,-2,0,-1,2,3
68226306027,-1,-3,-2,-3,-4,-3,-3,-2
68226321732,3,-1,-1,-1,-3,-2,-2,0
68226321732,-7,1,-1,1,3,3,2,1
68226322252,0,-1,-2,-3,-1,-2,-1,-2
68226322252,0,1,-1,-1,0,0,1,-4
68226336073,2,0,0,-1,-2,-1,-2,0
68226336073,-4,-3,-2,-4,-3,-3,-2,-4
68226343321,6,-1,-1,0,-1,-1,0,1
68226343321,-1,0,0,-2,1,1,0,2
68226358443,0,0,-1,-1,-2,0,0,1
68226358443,-4,-4,-3,-1,-1,-2,-2,-9
68226365876,4,1,-1,-2,0,0,-1,0
68226365876,-2,-4,0,0,-2,-2,-3,-1
