timestamp,emg1,emg2,emg3,emg4,emg5,emg6,emg7,emg8
51506354487,0,-1,-2,-3,5,10,2,-1
51506354487,0,0,2,5,10,-1,1,1
51506364590,3,-2,-1,-2,-7,-2,0,1
51506364590,-3,-1,0,-2,-2,-1,-1,-3
51506365203,-2,-1,-1,2,-21,-9,-3,-2
51506365203,4,2,-2,-10,-1,1,-2,-1
51506365999,-7,-8,-2,-6,-2,-3,-2,-4
51506365999,2,-1,-1,-1,1,-2,-2,0
51506370981,0,-2,-1,-4,-7,0,1,1
51506370981,-5,-2,-5,2,-11,-2,-2,-2
51506371569,0,3,0,9,14,-4,-4,-3
51506371569,0,0,4,7,3,1,-1,0
51506378355,-3,-2,-3,-23,1,-4,-4,-2
51506378355,-2,-1,-1,1,-3,3,-1,-1
51506393346,1,-1,-3,-6,-1,5,-1,1
51506393346,2,0,1,4,9,6,8,-3
51506406993,4,4,7,12,9,-2,-2,2
51506406993,-1,0,-2,-8,-9,-4,-3,1
51506415785,-3,-4,-4,0,-3,1,7,-6
51506415785,-1,-3,-3,-4,0,0,-3,0
51506429510,-4,-2,-3,-4,3,0,-2,-2
51506429510,1,-6,-3,5,-22,-11,-3,2
51506438317,-2,-1,-2,-12,-1,8,4,-2
51506438317,0,2,2,19,-4,-14,-6,1
51506446067,-4,-8,-8,-17,6,2,0,-4
51506446067,1,2,2,2,-6,-2,-1,1
51506454056,1,0,3,24,6,-4,-5,1
51506454056,-1,-5,-9,-27,-9,-3,0,-2
51506496962,-1,-4,-3,-8,4,-6,-4,-2
51506496962,0,0,5,16,-3,0,1,1
51506504281,-4,-5,-1,10,35,7,2,2
51506504281,-1,-1,5,12,-37,-16,-9,-8
51506511978,-2,-2,-6,-19,-8,6,13,1
51506511978,-1,1,-2,-23,-8,-5,-7,-5
51506527013,3,2,-3,-24,-4,-2,2,3
51506527013,3,1,4,20,18,4,2,5
51506537013,-12,-7,-4,0,3,6,-6,-11
51506537013,0,1,-4,-4,3,-3,-5,0
51506538570,-10,-4,-3,3,-26,3,3,-4
51506538570,-5,-4,-6,-5,18,-4,-3,-4
51506539393,2,3,2,15,4,-3,-8,5
51506539393,11,-5,-9,-20,-8,2,16,-2
51506556780,-31,-3,16,43,0,-3,-9,-11
51506556780,0,-3,-7,-12,3,-6,-9,3
51506564468,-1,0,-1,2,-6,-5,1,-1
51506564468,3,7,9,19,9,0,-9,1
51506579434,12,-4,-14,-32,1,-14,-15,-2
51506579434,0,0,-9,-51,-32,-3,8,2
51506586811,6,4,11,36,23,3,-2,-1
51506586811,-4,-6,-7,-19,-21,-5,0,-3
51506602271,7,0,0,3,-2,2,-4,2
51506602271,-6,-1,4,38,22,12,2,1
51506609254,3,2,-1,-2,-4,-19,-29,-14
51506609254,6,-1,-2,-36,-4,18,40,8
51506620292,4,2,6,1,-5,-16,3,5
51506620292,-5,-7,-4,14,12,12,4,-7
51506621325,1,2,-7,-29,-12,-1,4,10
51506621325,3,2,3,42,12,-2,-6,-10
51506625146,2,0,-11,-44,11,5,-2,-2
51506625146,7,4,14,-2,-21,6,13,5
51506625778,6,0,-1,23,14,1,1,-4
51506625778,-34,-10,-3,-2,-13,-16,-12,-7
51506639383,4,2,-3,-19,-5,1,1,2
51506639383,-3,-3,-3,16,34,-5,-8,-3
51506646966,-1,-2,1,-9,-41,-5,2,2
51506646966,3,-1,1,30,83,10,-6,1
51506662082,1,0,-7,-8,-69,-2,6,-1
51506662082,-3,-1,5,-5,-10,-4,-5,-1
51506669249,-2,-2,-5,-31,-3,0,4,-1
51506669249,1,0,6,13,6,7,3,2
51506684434,1,0,4,25,17,4,2,0
51506684434,4,2,-1,2,4,-1,-5,-3
51506691970,-3,-1,1,3,-4,-4,-6,4
51506691970,3,1,-16,-47,-31,-12,21,-3
51506707634,0,-6,2,33,35,21,-2,0
51506707634,-11,-2,-7,-19,-25,-12,-5,-8
51506708217,-4,-3,-1,5,32,23,7,0
51506708217,-3,-6,3,12,-16,-6,-13,-1
51506715794,1,1,-9,-12,-9,-9,-2,3
51506715794,3,-5,-3,3,15,4,15,1
51506721843,0,1,-5,-22,8,-11,-17,-13
51506721843,6,4,7,20,-19,13,-8,5
51506736930,-7,-11,-5,-4,-10,-27,-23,-9
51506736930,0,1,0,-18,-15,18,9,5
51506744560,2,4,10,22,0,-15,-6,4
51506744560,-1,0,-3,5,4,-1,-5,-1
51506759438,-1,-2,-19,-42,-20,-8,-3,-8
51506759438,9,6,19,21,20,-1,-6,4
51506766969,0,-1,-1,-8,-20,-8,-11,0
51506766969,-2,4,5,7,3,16,26,0
51506781794,-5,-1,11,48,9,2,5,-5
51506781794,-2,-2,-26,-80,-10,-18,-8,-6
51506790154,-1,1,14,30,-11,20,16,2
51506790154,4,-5,-3,0,20,-13,-19,1
51506796966,-2,-1,-3,1,9,-3,-4,1
51506796966,-8,-7,4,21,-15,-9,-2,-12
51506804300,4,6,-4,8,7,-10,8,13
51506804300,-21,-12,-8,-10,-7,-3,-11,-7
51506826953,-29,-13,-2,-13,-12,3,3,2
51506826953,-4,1,-9,-7,-3,-15,-17,-14
51506834390,3,-1,9,21,17,4,-3,1
51506834390,12,-1,-18,-46,-15,-16,-20,-1
51506849268,11,15,39,70,4,13,5,2
51506849268,0,6,-3,-21,8,16,11,10
51506856964,-6,-8,2,11,1,-3,7,-3
51506856964,0,-1,3,7,-4,-3,-18,-2
51506871927,3,-2,-9,-9,25,-6,-1,-2
51506871927,8,-1,1,8,-12,1,0,2
51506880841,4,9,-7,-17,-29,-1,-6,-6
51506880841,-6,-8,-11,-19,-13,-4,3,-1
51506882492,6,-2,-2,11,20,3,3,3
51506882492,-5,-5,-3,24,16,7,-3,1
51506886907,1,-5,-7,-16,-9,3,1,-4
51506886907,-5,7,-9,-39,-17,-2,-8,1
51506901779,0,-5,13,12,5,-4,6,4
51506901779,8,0,1,-1,-5,-6,-16,-13
51506909435,-12,-9,-3,14,19,37,54,2
51506909435,14,9,7,14,-8,-2,-5,3
51506924477,-12,-1,-2,15,6,8,-5,0
51506924477,-4,-1,-7,-25,-5,-17,-7,2
51506931977,8,-1,-8,-33,-6,-17,-20,0
51506931977,4,-1,5,22,3,-8,1,-1
51506954460,11,5,-1,-16,-3,18,14,-1
51506954460,-4,0,6,19,-7,0,2,3
51506963876,-8,-5,-12,-22,5,2,2,-2
51506963876,0,-1,10,21,24,-3,-5,-3
51506965567,2,4,-10,-31,-30,-12,-7,-2
51506965567,3,-1,-2,20,-3,0,1,1
51506966223,4,1,2,-15,4,-6,-22,2
51506966223,-2,0,-3,-2,-3,3,39,0
51506976827,-6,-1,6,10,5,16,2,-5
51506976827,-1,0,-5,-7,-8,-3,-2,2
51506984358,-19,-6,-2,-3,1,8,-3,-5
51506984358,-1,-3,-6,-15,-2,-14,-13,1
51506999474,11,2,-7,-2,1,3,15,7
51506999474,3,0,1,-9,26,-2,-9,-11
51507014409,-19,-5,-5,-3,-47,-22,-13,-7
51507014409,-1,-2,9,12,-2,1,-13,-3
51507029582,4,5,-2,-12,1,-5,-1,5
51507029582,-2,-4,4,7,6,3,1,2
51507036940,5,1,-2,11,11,-3,1,-2
51507036940,3,1,-5,-16,8,6,-1,3
51507053238,-3,1,7,-10,-10,-2,2,-3
51507053238,2,0,-5,5,6,0,1,3
51507054011,-1,-4,0,1,-5,-5,-1,-6
51507054011,-5,3,5,2,-13,9,14,-5
51507059258,3,-5,-9,-12,12,-12,-10,-3
51507059258,-1,-2,0,22,2,-7,-4,1
51507066799,13,2,-10,-33,-19,-7,-12,3
51507066799,-5,-3,6,47,24,0,16,1
51507081940,2,-1,-17,-21,-15,-5,-2,-4
51507081940,-10,-3,2,-6,-17,0,2,1
51507089378,6,-6,7,22,11,0,8,7
51507089378,-12,-6,-3,7,-10,-11,-39,-18
51507104416,1,0,1,-14,1,4,2,1
51507104416,-4,-6,-12,-9,0,6,11,1
51507119446,0,7,14,12,20,0,-7,-1
51507119446,4,-4,-10,-23,-17,9,5,5
51507137093,-7,-3,1,9,-5,-7,-9,-7
51507137093,9,8,8,-19,-16,-5,-4,1
51507137687,-5,-9,-7,3,18,9,1,-6
51507137687,4,4,4,28,-4,3,9,5
51507139480,0,0,1,-15,7,-20,-31,-3
51507139480,8,-1,-5,0,17,23,27,0
51507142101,-9,1,3,-2,-39,-19,-3,-4
51507142101,-2,-2,-21,-59,-12,7,3,0
51507156788,2,5,31,86,10,2,-6,1
51507156788,-5,-5,2,-2,5,-5,-16,-4
51507164267,0,-3,-8,6,10,5,8,1
51507164267,-2,0,-5,-21,-5,-2,-9,0
51507179872,-4,1,4,-17,-6,-7,5,-3
51507179872,-6,-5,-8,-12,-5,2,0,0
51507186727,4,2,0,-9,-7,-7,-1,0
51507186727,-6,-4,9,35,20,4,4,0
51507201718,1,-4,-19,-45,-14,-8,-13,-6
51507201718,2,4,5,-6,-28,12,18,12
51507209193,9,0,-7,-10,9,-7,-27,-6
51507209193,6,2,7,14,9,-1,3,2
51507224874,-2,-2,3,6,-11,-3,-6,-5
51507224874,-8,-3,-6,8,2,-7,-2,-1
51507225649,-2,-2,-1,15,0,2,6,1
51507225649,-5,-1,6,-3,-5,-1,1,1
51507239221,-2,-4,-7,4,9,5,9,1
51507239221,7,2,-2,-3,-5,-3,-7,-1
51507246705,-14,0,2,24,10,2,5,-4
51507246705,-5,-7,-13,-58,-25,-12,-7,-7
51507261898,0,-1,0,9,16,4,4,3
51507261898,-7,-4,-10,-23,-7,-4,-2,-4
51507269419,0,2,8,10,7,6,3,1
51507269419,11,4,4,23,-6,-3,5,-1
51507293130,-17,-6,-4,-9,8,-4,-9,-6
51507293130,-3,-5,-5,-12,-7,-2,-5,-3
51507299364,1,0,1,20,5,2,3,2
51507299364,-1,-1,5,6,-2,-2,-4,0
51507317758,3,0,-7,-14,-3,8,9,-1
51507317758,-4,-3,1,33,8,-4,-11,-5
51507318571,-4,-1,-8,-63,-4,1,8,5
51507318571,-4,-4,-7,9,1,-3,-8,-8
51507321739,21,7,7,22,-7,-7,8,6
51507321739,-11,-5,-5,-15,9,1,0,3
51507329206,6,2,6,27,-11,1,-4,-7
51507329206,0,1,2,-1,15,-4,-2,-6
51507344197,3,1,-1,-9,-2,9,5,1
51507344197,3,3,1,7,-6,-17,-21,-3
51507351763,6,-2,-1,-21,-2,15,22,5
51507351763,-5,-1,-1,11,9,11,2,0
51507366764,2,-4,-9,7,-6,-7,-2,-1
51507366764,-20,-5,-2,-3,4,1,-2,-6
51507374138,-4,1,-2,-8,3,-5,-8,1
51507374138,5,-1,1,4,-9,-12,-26,-6
51507398757,-3,1,0,-3,6,16,37,3
51507398757,6,-2,-5,1,11,6,3,0
51507399520,2,0,10,11,-5,-2,-3,-1
51507399520,-9,-4,4,5,-10,-2,-9,2
51507401766,-2,-2,-8,-43,-18,-9,-5,0
51507401766,3,2,15,31,15,1,5,-1
51507404202,-9,-11,-10,-8,6,0,1,-3
51507404202,-1,-1,-5,2,-6,0,0,1
51507419256,-1,-2,-1,25,2,-7,-8,-5
51507419256,-17,0,-8,-29,-4,8,7,-4
51507426767,12,5,5,21,-3,-4,-4,8
51507426767,-21,-10,-14,-42,-5,0,-3,-11
51507441715,-8,-5,-4,-4,7,-3,-9,-1
51507441715,10,6,1,-17,-15,-6,2,2
51507449282,-4,-3,1,41,4,2,1,0
51507449282,4,5,1,-16,0,-5,6,4
51507471783,3,-1,1,-7,11,4,-1,-3
51507471783,2,-5,-3,0,-24,-10,-10,-5
51507480653,-3,-1,-2,-2,5,3,-1,-4
51507480653,1,-2,1,-3,13,4,9,1
51507482202,1,-5,-7,-5,-7,3,-5,-3
51507482202,5,3,7,25,2,-4,5,4
51507487484,-2,-2,-6,-8,-2,-2,-4,-5
51507487484,-1,1,-2,12,-3,0,4,1
51507501885,-2,0,6,3,-6,0,-6,2
51507501885,2,-5,-8,-7,5,-2,-6,-1
51507509263,12,3,-6,-17,-18,2,16,3
51507509263,2,0,3,8,16,-5,-3,1
51507524422,-8,-3,-2,-11,-2,6,-6,-5
51507524422,-6,-3,7,19,-3,0,1,-2
51507531900,9,0,-7,-19,12,-5,-9,2
51507531900,-9,-2,2,1,-12,-2,-4,-2
51507546944,-8,-8,-7,-15,1,-4,14,-4
51507546944,6,2,11,8,-6,-2,-3,-3
51507554408,5,-2,-9,-31,2,-1,-5,3
51507554408,4,3,16,66,1,-5,-4,4
51507572078,-7,-1,-1,-8,-3,2,5,-4
51507572078,1,1,-4,-17,3,2,-5,-1
51507572906,-7,1,3,12,-1,-1,1,-6
51507572906,5,1,-8,-30,-12,-4,1,6
51507576929,-2,-1,1,25,14,1,-10,2
51507576929,7,0,4,10,-5,4,12,-3
51507584290,-9,-3,-3,-15,-17,-3,-8,-5
51507584290,6,2,0,0,17,-1,3,0
51507599236,1,0,-3,-13,1,5,-5,-1
51507599236,-12,-6,-6,9,-4,2,2,-4
51507606984,-6,-3,-1,-2,7,-7,-3,0
51507606984,0,0,9,5,7,5,-1,-2
51507621809,-1,-3,-11,-16,-15,-9,-3,0
51507621809,2,-1,3,9,-2,-5,-7,2
51507629583,-7,-1,0,-4,-5,-3,-3,-4
51507629583,-2,-4,-12,-17,-2,2,3,-1
51507644327,3,2,-1,-3,6,3,-2,1
51507644327,3,-2,-8,-7,-1,-4,-3,0
51507660689,-1,-1,6,-3,-4,-1,2,-2
51507660689,2,-2,-3,-6,0,2,-1,-2
51507662449,1,-1,0,18,10,0,0,0
51507662449,-1,1,-7,-21,-12,-5,-5,-1
51507674241,11,4,0,-12,-16,-2,4,0
51507674241,2,-1,10,46,5,2,9,8
51507689436,-11,0,-6,-21,-7,-9,-12,-10
51507689436,-5,-3,5,7,3,-2,0,-6
51507704375,0,-4,-6,-1,10,0,-5,-1
51507704375,2,-1,-12,-10,-8,-4,0,5
51507719306,9,7,20,24,-21,-5,6,2
51507719306,4,5,5,-8,19,16,-1,-1
51507726930,-4,-3,-4,-11,7,2,-3,0
51507726930,-4,-4,-9,-30,-31,-6,-1,-6
51507743902,-3,-3,-9,-5,4,-3,4,1
51507743902,-3,0,5,27,1,-10,-14,-2
51507744512,-1,-2,-7,-17,2,3,9,0
51507744512,-2,-1,1,21,7,2,1,-3
51507746189,5,2,0,0,-8,-6,-4,1
51507746189,0,-2,0,10,6,-1,2,3
51507749966,-9,-2,-4,1,-1,-2,-1,-3
51507749966,-2,-2,-3,-8,-6,0,-5,-4
51507764289,0,-6,-6,4,-3,-4,-3,-1
51507764289,-12,-5,-2,6,-3,1,3,0
51507771914,-2,-2,-5,-16,-2,-4,-8,-4
51507771914,2,-1,-4,-16,1,4,3,0
51507786749,7,2,7,22,0,-2,-14,2
51507786749,-7,-4,-14,-54,-9,-6,16,-4
51507794375,0,-2,8,41,5,-3,-5,-2
51507794375,-2,4,6,6,-7,-2,2,1
51507809311,-8,-9,-8,-7,12,-1,-2,-4
51507809311,18,4,4,11,11,8,-5,6
51507816863,1,0,-6,-21,-31,-14,-8,0
51507816863,2,1,1,-6,-10,1,5,1
51507826431,-8,-2,1,0,3,2,1,-4
51507826431,2,-3,-13,-20,2,2,2,0
51507827387,-5,-4,2,-1,3,-6,0,-1
51507827387,1,0,2,9,17,8,-7,-1
51507839410,1,-1,-10,-20,-17,2,7,8
51507839410,-2,1,14,15,1,-8,-13,-6
51507846824,1,4,8,21,3,2,0,0
51507846824,-12,-4,-3,0,2,-3,-3,-5
51507861777,-6,-6,-13,-8,0,4,4,2
51507861777,-1,-4,-9,-19,2,-5,-1,0
51507869210,-9,-5,-6,13,-2,1,-1,-2
51507869210,13,2,-1,-8,16,3,-4,0
51507884355,13,7,8,9,-8,-10,-3,0
51507884355,3,2,0,9,-22,1,4,5
51507891927,-5,-2,-4,-11,-7,-2,-10,-6
51507891927,-8,-6,-3,6,3,2,20,0
51507906765,5,1,3,0,8,8,-1,1
51507906765,-18,-3,6,28,7,-5,-4,-8
51507915036,-2,-2,-10,-73,-27,-7,1,2
51507915036,1,3,-2,-1,10,-2,-8,-3
51507921968,-5,-5,0,19,1,3,-2,-2
51507921968,4,1,4,2,4,1,5,2
51507936819,1,3,5,28,3,5,1,2
51507936819,-10,-8,-5,4,6,-5,-8,-5
51507959372,2,3,-2,-29,-21,-8,2,0
51507959372,-1,-6,-9,-6,2,3,-5,-3
51507966871,0,0,-2,14,12,3,2,0
51507966871,2,1,9,41,-8,-3,-3,-2
51507981703,-6,2,1,-30,-7,-6,1,-3
51507981703,-1,-5,-13,-39,-27,-10,-9,-1
51507989450,-3,0,2,17,14,4,3,-1
51507989450,3,-1,-9,-19,4,2,0,3
51507999545,-8,0,10,26,3,1,-1,-3
51507999545,-3,-1,-2,10,3,1,-5,-2
51508000351,0,-3,-5,-18,9,-5,6,3
51508000351,5,1,4,-1,-12,-2,0,2
51508004966,1,1,-2,-3,7,-5,-9,-4
51508004966,0,-5,-11,-17,-3,2,1,0
51508005741,-1,-2,1,13,-7,2,-3,-3
51508005741,0,1,11,32,-2,-7,-1,-1
51508026920,-3,-6,-11,-44,-12,7,-2,0
51508026920,0,2,0,-10,17,8,2,-2
51508034432,1,-1,3,12,-17,-11,-10,-3
51508034432,-4,-3,2,-3,5,2,11,1
51508049358,0,-4,-3,13,0,3,7,0
51508049358,-1,1,2,2,2,-5,-3,0
51508057101,10,0,2,15,-4,7,6,7
51508057101,0,0,-9,-38,-6,-7,-16,-15
51508071971,-2,-2,-9,-7,5,0,2,2
51508071971,4,5,15,44,3,5,6,2
51508079256,-3,-1,-3,-3,-6,-3,-1,-2
51508079256,7,-1,-2,4,15,8,1,3
51508089626,-16,-6,-2,-1,-9,-4,-3,-5
51508089626,-5,0,-5,-17,-10,-5,-6,-5
51508090412,6,2,5,-2,6,-5,0,2
51508090412,-3,-5,-9,-18,-11,-4,-1,0
51508109357,6,0,5,13,11,2,-4,-2
51508109357,3,0,-4,-8,-2,0,4,5
51508124354,-9,-1,6,9,2,2,-3,-5
51508124354,-8,-4,-12,-26,-5,-2,-2,-4
51508139361,2,0,10,18,2,0,-1,-1
51508139361,-3,-6,-14,-35,-8,-4,0,0
51508146723,1,-2,-8,-7,9,4,0,0
51508146723,-10,-4,-1,3,-10,-10,-3,-1
51508161923,-4,2,0,7,-4,4,-3,1
51508161923,5,1,5,14,7,-4,0,-3
51508171862,-6,-3,-2,2,2,0,-1,-5
51508171862,2,0,-6,-18,-7,1,-1,1
51508174385,0,0,8,11,-5,-2,3,0
51508174385,0,2,-4,-6,-3,0,0,-1
51508177720,-4,1,3,10,-1,-3,-4,0
51508177720,3,2,4,-6,-2,-1,-1,7
51508191786,-6,-5,-8,-6,-2,-8,-4,-11
51508191786,-6,0,1,2,2,7,-8,-2
51508199432,-2,0,-7,-3,1,0,-1,-3
51508199432,-9,0,-2,-25,-4,2,-1,-1
51508214385,14,3,3,2,10,-6,-1,5
51508214385,-4,0,5,3,-7,3,9,-1
