timestamp,emg1,emg2,emg3,emg4,emg5,emg6,emg7,emg8
68239832576,-1,-1,-2,0,-1,0,-3,-2
68239832576,-1,-1,-2,0,0,-2,-1,-1
68239838118,0,0,-1,-2,-1,-1,1,0
68239838118,-1,-5,-3,-1,-3,-4,-2,-3
68239838850,-1,-1,0,-1,-2,-2,-4,0
68239838850,-1,-2,-2,2,3,3,3,-1
68239840401,-2,0,-1,-2,-1,-1,-3,0
68239840401,-2,0,0,0,-1,-1,-1,-2
68239851165,0,0,-1,-2,0,0,0,-2
68239851165,-2,-1,-1,0,-3,-2,-3,-1
68239862623,0,-2,-2,-2,1,0,1,-1
68239862623,-1,0,0,-1,-1,0,0,1
68239866252,0,-1,0,0,0,-2,-1,-1
68239866252,0,1,0,-2,0,-3,-3,0
68239881174,-3,-2,-2,0,-2,0,-2,-1
68239881174,-1,-1,-1,-3,-2,-1,0,-1
68239889884,0,-1,0,-2,-1,-1,0,-1
68239889884,-1,-2,0,-2,2,1,1,-1
68239897420,0,-2,-1,0,-3,-1,-2,-1
68239897420,-1,-2,0,0,0,-3,-4,-1
68239911232,-1,-1,0,-3,-2,-2,-2,1
68239911232,-2,0,0,-2,-1,-4,-1,0
68239921143,-2,-1,-1,0,-3,-1,0,-1
68239921143,0,1,-2,-2,-3,-2,-2,-2
68239958617,-1,0,1,4,6,6,2,0
68239958617,-2,-1,1,-1,-1,0,-1,0
68239959317,0,0,1,-2,-2,0,1,1
68239959317,-1,0,0,-1,-3,-2,-1,-1
68239960930,-1,-3,-5,-2,0,-1,-1,-2
68239960930,0,-3,-3,0,-2,-2,-2,-3
68239963441,-1,-1,-1,0,2,0,0,-3
68239963441,0,-1,-1,-4,-1,-4,-3,-1
68239971009,0,0,1,-1,-3,0,0,-1
68239971009,-2,-3,-3,0,-2,0,-2,0
68239979875,-1,-1,-2,-2,-3,-3,-2,-1
68239979875,-1,-1,-2,0,0,2,-1,0
68239985946,-1,-3,-2,-1,-2,0,-1,0
68239985946,-1,1,-1,-2,1,0,1,-1
68240001057,0,0,0,0,-2,0,-2,0
68240001057,-1,1,1,-3,-1,-1,0,-1
68240008240,-3,-2,-3,-2,-3,-5,-2,-1
68240008240,0,2,-1,-1,3,1,0,-1
68240017288,-1,-2,-2,-2,-1,-3,-2,-2
68240017288,-2,0,-3,-2,-2,-2,-2,-2
68240030723,1,-1,-2,-2,0,1,1,2
68240030723,1,1,-1,2,1,-2,0,-1
68240039845,-1,-3,-1,0,-1,-1,0,-2
68240039845,-1,-3,-2,-1,-1,-2,0,0
68240045910,0,2,0,-1,-2,-4,-3,-3
68240045910,-3,-2,-1,-3,-4,-4,-3,-1
68240060992,-2,-1,-1,1,3,1,2,0
68240060992,0,-4,-2,0,0,-1,-1,-2
68240068275,0,0,0,1,-1,-2,-1,-2
68240068275,1,0,1,1,-1,0,-2,-1
68240077295,-2,-3,-3,-2,-2,-2,-1,-1
68240077295,-1,-1,0,2,0,1,1,-2
68240090937,-1,-1,-3,-1,0,-1,-2,-1
68240090937,0,0,1,-1,-1,1,-1,-2
68240099743,-2,-3,-1,-3,-4,-4,-3,-1
68240099743,-1,-1,0,0,0,0,-1,0
68240106168,0,0,-2,-1,0,0,1,-2
68240106168,-2,-1,-1,-1,1,1,1,0
68240122345,-1,-3,-3,-1,-1,0,-1,0
68240122345,-3,-1,-4,-2,-2,-2,-2,-2
68240128436,-1,-1,1,-2,-2,0,1,0
68240128436,-1,-2,-1,-3,-3,-2,-3,-2
68240137289,-2,1,1,1,4,4,-1,0
68240137289,-1,-1,1,0,-1,-1,-1,-2
68240150976,-1,0,0,0,-4,-4,-5,-1
68240150976,-2,-2,-1,-2,-1,-1,1,-1
68240159834,-1,-3,-3,-3,-3,-2,-4,-2
68240159834,0,-1,-2,-1,-1,-4,-2,-1
68240165914,-2,-2,-3,-1,1,0,-1,-2
68240165914,-1,-1,0,2,-3,-1,-1,0
68240181034,0,1,-1,0,-1,-2,-2,-1
68240181034,-3,-2,1,2,2,0,0,1
68240188277,-1,-3,-1,-2,-1,-2,-1,-2
68240188277,-1,-3,-1,1,-1,-3,-4,-1
68240203390,-1,0,-3,-2,-2,0,-1,0
68240203390,-1,0,0,-3,-1,-1,-1,0
68240210909,-2,-1,1,-1,-2,-4,-1,0
68240210909,0,1,2,4,6,4,2,1
68240219814,-2,-3,-4,-3,-4,-1,-3,-2
68240219814,-1,-1,0,-2,-2,-1,-2,0
68240226012,-2,2,0,1,-3,-2,-3,0
68240226012,-1,-1,-3,-2,-5,-4,-3,-2
68240240900,0,1,0,1,2,-1,-1,-1
68240240900,1,-1,-3,-1,1,-1,-2,-1
68240248441,-1,-3,-2,-3,0,-2,-3,-1
68240248441,0,-2,-1,-1,-3,-3,-3,-1
68240263332,-1,-1,0,3,2,3,3,2
68240263332,-3,-2,-1,-2,-3,-3,-3,-2
68240271459,-2,-1,-1,0,0,3,1,0
68240271459,-1,-1,-2,-3,-3,-3,-2,1
68240278369,-1,0,-1,-2,-2,-3,0,-1
68240278369,-2,0,0,0,-2,-1,-1,-1
68240285986,-1,-4,-2,-2,-1,-2,0,0
68240285986,-1,-1,1,2,4,2,0,-1
68240300772,1,0,1,-1,-3,-2,0,-1
68240300772,0,0,-1,-1,-2,1,-1,0
68240308434,0,0,0,-1,-1,-2,-1,-3
68240308434,-1,-1,-2,-2,-1,0,0,-2
68240323447,-1,-2,-1,0,-2,-2,-1,-1
68240323447,0,0,0,-1,-1,-1,-1,0
68240331661,0,1,0,-1,1,0,-1,-1
68240331661,-1,-1,1,0,1,-1,-1,-1
68240338440,0,0,0,0,0,-1,0,-3
68240338440,0,-1,-1,-1,-3,-2,-3,-2
68240345949,-1,0,-3,0,0,-1,1,1
68240345949,-1,-1,-1,-3,-3,-1,1,-2
68240360909,0,0,0,0,0,0,-2,0
68240360909,-3,-1,-3,-1,2,0,2,-1
68240368314,-1,1,0,0,-1,-2,-2,0
68240368314,-2,-4,-4,-1,-1,-1,0,-2
68240383466,0,-2,-3,-2,-2,-2,-1,2
68240383466,-1,-2,-1,-2,1,-1,-1,-7
68240391645,0,-1,2,0,-1,-1,-2,-1
68240391645,0,-1,0,-4,-3,-3,-1,-1
68240398435,0,-1,-1,0,-2,-1,-3,-1
68240398435,1,1,2,0,0,0,0,2
68240405972,-3,-1,-1,0,-2,-3,-2,-3
68240405972,1,-1,0,-2,-1,0,-2,-1
68240420938,2,-1,-3,-3,0,-2,-1,-3
68240420938,-7,-2,-1,-1,-2,0,1,0
68240428220,-4,0,0,1,1,2,0,-1
68240428220,6,1,1,0,0,0,-2,4
68240443361,-2,-1,-2,1,0,-1,1,-2
68240443361,2,-1,-2,1,0,-3,-2,-1
68240451544,2,-2,-3,-2,-1,1,0,-1
68240451544,-4,0,1,-2,-3,-4,-2,0
68240458476,-3,-2,-6,-5,-2,-2,-1,-1
68240458476,1,0,8,1,2,1,-1,-1
68240474158,-2,-3,-9,-3,-1,-2,-1,3
68240474158,-3,-2,1,-1,-2,-2,-2,-6
68240480889,0,1,-1,1,1,1,-1,0
68240480889,-1,1,2,0,-2,-1,-1,1
68240488444,1,-1,1,0,2,3,0,-2
68240488444,-1,2,5,-3,-3,0,1,1
68240503296,-3,-1,-1,3,-1,-2,-1,-2
68240503296,-1,-1,0,1,-2,-3,-2,0
68240511544,2,4,10,4,-1,0,0,-1
68240511544,-2,-11,-43,-15,-2,-4,-2,0
68240518316,-1,0,8,1,-1,0,-2,0
68240518316,1,-3,-7,-2,-1,2,1,1
68240534124,-1,0,-2,-3,-3,-3,-1,-2
68240534124,-1,2,5,3,-1,1,0,-2
68240540908,-1,1,0,-3,-2,-2,-4,-2
68240540908,-3,-3,-7,-3,-3,-2,-2,-1
68240548389,0,-1,7,1,-1,1,2,-1
68240548389,-1,3,5,2,1,-1,-1,-2
68240563489,-1,-2,2,-1,-3,-2,-1,1
68240563489,0,-2,-7,-8,-2,-4,0,-3
68240571458,0,-6,-1,-2,-1,-1,-1,-2
68240571458,0,-2,-1,0,0,-3,0,0
68240578470,-1,-1,0,-3,-3,0,1,-2
68240578470,0,-7,3,3,1,2,1,2
68240594242,0,5,-1,0,-3,-1,-3,-2
68240594242,-2,-2,-11,-4,-1,-1,-1,1
68240600948,0,0,8,1,0,-3,0,-2
68240600948,4,10,8,6,2,0,0,1
68240608277,-6,-9,-12,-4,-2,-2,-3,-4
68240608277,1,2,7,5,0,-1,-2,-2
68240623436,-1,0,-3,-2,-2,-3,-1,0
68240623436,-5,-3,-7,-6,-2,-3,-2,-2
68240630954,1,0,-2,-1,0,-2,-2,1
68240630954,-1,2,7,2,0,2,1,-1
68240639828,-2,-4,-4,-3,-1,1,-4,-3
68240639828,0,-1,4,2,1,1,-1,-2
68240654029,0,-2,-6,-6,-4,-3,-1,-2
68240654029,-3,-4,0,-3,-1,0,-4,-1
68240660961,-1,1,0,-2,-2,-2,-1,0
68240660961,-1,3,0,1,0,2,2,0
68240668459,-2,-5,-9,-5,-1,-4,-3,-1
68240668459,2,4,2,2,0,0,-1,-3
68240683400,0,-3,-17,-5,-1,1,0,2
68240683400,-1,2,-4,0,0,-1,0,2
68240690759,-4,-2,4,2,-2,-1,-1,-6
68240690759,-2,0,5,1,1,0,2,0
68240699807,-2,2,-6,-3,-1,-1,-2,-3
68240699807,0,0,5,-1,-3,-4,-1,-3
68240714126,0,-2,5,1,-4,-2,-3,0
68240714126,-1,-5,0,0,1,-2,0,-2
68240720951,-2,-3,5,-1,-14,-5,-3,-3
68240720951,-1,-7,-9,2,8,1,-2,0
68240728284,0,3,11,1,-3,-2,0,-1
68240728284,-1,1,1,1,-5,-1,-2,-3
68240743424,2,-3,0,1,4,0,1,-1
68240743424,-4,-7,-1,-7,-10,-3,-2,-2
68240750925,0,2,-6,-2,0,-1,0,2
68240750925,0,1,1,0,3,-1,-1,1
68240759861,-2,0,4,-3,-5,-1,-1,-2
68240759861,2,6,-2,0,0,3,1,-1
68240773966,-3,-6,-3,0,2,1,0,-1
68240773966,-2,2,2,-2,-1,-3,-2,-1
68240780792,-1,-2,-1,2,4,1,-1,1
68240780792,-3,-2,-1,0,-1,-3,-2,-2
68240788336,1,6,-1,-5,-4,0,-2,-1
68240788336,0,-2,-3,3,8,-1,-1,0
68240803400,-3,-2,-2,-5,-2,0,-1,0
68240803400,0,2,4,13,10,4,0,0
68240810993,-4,-5,0,-7,-4,-1,-1,2
68240810993,-4,1,-4,-7,-8,-4,-3,-1
68240819849,3,1,3,0,-2,-2,0,-2
68240819849,-1,-6,-3,-1,-2,0,0,0
68240834151,0,0,-2,-1,1,1,-1,-1
68240834151,0,-2,-2,0,-3,-2,0,-1
68240840877,0,6,-1,-1,1,-1,-2,0
68240840877,-2,-9,1,-8,-9,-5,-3,-4
68240848474,0,1,-1,5,3,-1,-2,-2
68240848474,-1,0,0,-3,4,1,-2,-1
68240863500,1,0,-3,0,-5,-3,-1,0
68240863500,1,2,0,4,-1,0,1,-2
68240871003,1,-4,3,8,19,4,0,1
68240871003,7,4,-3,-1,-5,-2,0,0
68240879807,-5,-6,0,0,1,2,-2,-2
68240879807,-6,-2,-3,-6,-4,-3,-3,-2
68240894186,0,1,-1,-3,-11,-5,-1,6
68240894186,-1,0,2,0,-3,0,-1,-8
68240900838,6,9,0,-1,-1,0,-1,1
68240900838,-7,-18,-4,-2,3,-2,-3,-2
68240908460,-4,1,-5,-6,-6,0,2,-4
68240908460,-3,-4,-3,-6,-3,-2,-2,0
68240923496,-1,-3,0,-2,-16,-4,2,-3
68240923496,2,12,1,17,28,6,2,2
68240931137,1,-4,-1,-1,9,0,-4,-6
68240931137,5,-2,11,4,-2,1,3,9
68240947320,-5,-7,-8,-10,-4,-1,-2,-3
68240947320,-7,1,-5,-8,-12,-2,-3,-5
68240954104,6,4,-1,3,2,1,3,8
68240954104,-3,4,0,0,1,0,-4,-4
68240969132,0,-8,0,5,8,0,1,4
68240969132,1,2,0,-5,-6,-2,-3,-2
68240969770,-4,-3,-4,-4,-4,-3,-2,-6
68240969770,-3,-5,-3,-6,-5,-1,-3,-3
68240983529,1,4,3,5,-6,-1,1,2
68240983529,3,-1,-2,5,21,4,0,1
68240991032,-3,-1,0,-3,-6,0,-2,-5
68240991032,-2,-2,-4,0,-1,-2,-2,1
68241005980,-2,2,1,2,4,-1,-3,-9
68241005980,4,1,0,-6,-11,-2,2,6
68241021431,-1,0,0,-1,-3,-2,-2,-1
68241021431,-2,-4,-1,-1,-1,-3,-7,-8
68241028883,-1,-7,-2,-2,2,-3,5,0
68241028883,1,1,0,-6,-15,-7,-9,-1
68241029689,2,2,0,-2,-2,0,3,1
68241029689,-4,-3,-4,1,2,5,2,0
68241043395,2,3,1,1,8,4,4,2
68241043395,1,-2,1,-3,-4,-3,-5,-2
68241051603,-5,-4,0,1,-3,-6,-3,-3
68241051603,0,-2,-1,0,0,-2,2,2
68241066006,0,-2,2,3,3,0,-5,-1
68241066006,-2,0,-1,-5,-4,-1,4,0
68241074115,0,-1,-2,-3,-3,-3,-3,-1
68241074115,-2,-3,-1,-1,-2,-2,-1,-4
68241089118,-1,-1,-1,-2,0,0,-2,1
68241089118,0,2,-1,-3,-7,-2,0,-3
68241089855,0,0,0,-1,-2,0,0,-1
68241089855,0,-1,-1,-2,0,-1,0,2
68241103518,-4,-4,-2,1,2,2,0,-1
68241103518,-1,0,2,0,1,1,0,1
68241111448,-1,-1,-2,-1,-1,-1,-3,-2
68241111448,-1,-1,-2,0,-3,-2,-1,-1
68241125970,-2,0,-1,-2,-2,-2,-5,-1
68241125970,1,-2,-1,0,-4,-1,2,0
68241134160,-1,-3,-1,-1,1,-1,0,-1
68241134160,-2,2,-1,-1,-2,-1,-1,1
68241149183,-3,-2,1,0,-1,-2,1,-1
68241149183,0,0,-1,-2,-2,-1,-2,-2
68241149826,1,-1,0,-1,-1,1,-2,0
68241149826,0,-5,-3,0,-1,0,0,-1
68241163445,0,1,-4,-1,-2,-1,-4,2
68241163445,-2,-2,-2,-3,-2,-2,-2,-2
68241171667,0,-1,-2,0,-1,-2,-2,-1
68241171667,-1,0,0,1,2,2,3,-1
68241185928,0,-2,-1,-2,0,-1,-2,-1
68241185928,-2,-3,-1,-2,-3,-2,-2,-1
68241193970,-1,1,0,-1,-2,-1,4,0
68241193970,-3,-1,-1,-2,-2,-1,0,-1
68241209079,-1,-2,0,-1,-1,0,-1,-1
68241209079,0,-2,-1,0,-2,-2,1,1
68241209845,-1,-1,-1,-1,-1,-1,-3,-1
68241209845,0,-2,-1,0,-2,-1,-2,-1
68241232334,-1,-1,-1,-2,-1,-3,-1,-2
68241232334,-2,-1,-1,-1,0,1,-2,-3
68241232961,-1,-1,-1,0,1,0,0,-1
68241232961,0,-2,-1,-2,-1,-2,0,1
68241245888,-1,-2,-1,-3,-2,-1,-2,-3
68241245888,1,-1,0,-3,-4,-2,-2,-1
68241254119,-3,-1,-2,1,-3,-1,-1,-2
68241254119,-1,-1,0,-2,0,1,0,-2
68241268879,0,-1,-1,1,1,1,0,-1
68241268879,-1,0,-2,-2,0,0,0,-1
68241269663,0,-1,-1,1,-4,-3,-2,0
68241269663,-2,0,-2,-2,-2,-5,0,-1
68241283420,-2,-3,-3,2,1,2,0,-1
68241283420,-2,-1,0,1,1,0,-2,0
68241292320,-1,2,-1,-2,-1,-2,-3,-2
68241292320,0,-2,-2,-2,-3,-2,-1,-1
68241314809,0,2,-1,-3,-4,-3,-2,-1
68241314809,-2,0,-1,-2,-3,-3,-1,0
68241315498,1,-2,-3,-1,-1,2,2,-1
68241315498,-1,0,0,0,0,-1,-1,-3
68241329004,0,-1,-1,0,-1,-1,-3,0
68241329004,0,-2,-1,-1,-1,-1,0,2
68241329762,-2,-2,-1,-2,-4,-1,-2,-1
68241329762,-2,-1,-1,0,-1,1,0,-1
68241343427,0,-2,-3,0,0,-2,1,2
68241343427,-4,-1,-1,-1,-1,1,0,-5
68241351429,-1,0,-2,-1,1,0,-2,-2
68241351429,1,-1,-2,-1,-2,-3,-3,1
68241365928,-2,2,-1,0,-1,-1,-1,-1
68241365928,2,-2,-3,-1,-2,-1,-1,1
68241374124,-3,-2,-2,0,3,0,1,-1
68241374124,-3,-2,0,0,-2,0,-2,-3
68241389107,-2,-2,0,-2,-3,-1,0,-2
68241389107,1,0,-2,1,0,-1,-5,-2
68241389807,-1,0,0,-1,0,-1,-1,-3
68241389807,0,1,0,-3,-1,-1,0,1
68241403441,-2,-4,-2,-1,-1,-2,-2,-2
68241403441,-2,1,-2,-3,-2,-1,1,2
