timestamp,emg1,emg2,emg3,emg4,emg5,emg6,emg7,emg8
1512715113847795,2,-1,-2,-1,-1,-1,0,2
1512715113847795,-3,-1,-1,-1,-1,-1,0,-3
1512715113847795,1,3,-1,-1,5,1,1,1
1512715113847795,-1,-1,-2,0,-2,-1,-2,-2
1512715113848782,0,-4,-1,-3,-1,-1,0,-1
1512715113848782,-2,-2,1,0,1,1,0,-2
1512715113849784,-2,-4,-1,1,-3,-1,0,3
1512715113849784,-2,-4,-2,-2,0,-2,-1,0
1512715113861783,0,6,2,1,-3,-3,-2,-1
1512715113861783,1,-4,-3,-1,-3,1,-2,0
1512715113868782,-4,-11,-4,-3,-2,1,-3,-4
1512715113868782,0,7,1,-2,-1,-2,-3,-6
1512715113876783,-5,-7,-2,-1,-1,1,0,2
1512715113876783,1,2,-2,-2,-4,-4,0,1
1512715113890784,-2,7,1,-1,-1,-2,-4,-5
1512715113890784,-2,-8,-2,0,-1,2,3,1
1512715113901787,0,0,-3,0,-2,-3,-3,-5
1512715113901787,0,1,-1,0,-1,1,-2,-1
1512715113905785,2,-4,-1,0,-2,-3,-1,3
1512715113905785,-1,3,0,-2,0,-3,-4,-2
1512715113921786,-2,0,1,0,1,1,-2,-1
1512715113921786,-1,-6,-3,0,-1,1,0,1
1512715113928789,0,-3,1,-1,-3,-1,1,-1
1512715113928789,1,1,-2,-1,-3,-1,1,2
1512715113968790,0,-1,0,-1,2,-1,0,5
1512715113968790,1,0,-2,-1,1,3,0,0
1512715113969791,-1,-1,-2,-1,-2,0,-1,-2
1512715113969791,-3,6,0,-2,-3,-2,-2,-2
1512715113970791,0,-5,-3,-3,-4,-1,1,-1
1512715113970791,-3,-6,-1,-2,-2,-2,-2,-3
1512715113972823,-3,-7,-2,-3,-3,-4,-4,1
1512715113972823,3,8,-1,0,1,3,3,-1
1512715113981793,-3,2,1,0,-2,-1,0,-2
1512715113981793,-2,1,-5,-1,-1,-3,-4,-3
1512715113987831,-2,-7,-2,-1,-1,0,3,5
1512715113987831,-3,-9,-3,-3,-4,-5,-7,-5
1512715113996794,1,2,-3,1,3,1,2,6
1512715113996794,-4,-6,-2,-3,-1,-1,-2,-1
1512715114010794,-3,9,2,0,0,0,-4,-4
1512715114010794,1,-8,-3,-1,0,1,3,1
1512715114018799,0,2,-1,0,-2,-2,-4,-4
1512715114018799,3,4,3,2,-1,0,0,5
1512715114032794,0,9,-1,-2,-6,-5,-3,-2
1512715114032794,-4,-17,-2,1,-3,-3,-2,-6
1512715114041796,-2,1,-1,0,2,2,0,0
1512715114041796,1,1,0,0,1,0,1,-2
1512715114047794,-1,-4,-2,-1,1,2,1,-2
1512715114047794,0,3,-1,-2,-5,-5,-5,2
1512715114056797,-1,-5,-2,-3,-3,0,1,-3
1512715114056797,-1,3,2,3,1,-3,-1,0
1512715114070796,-1,-4,-2,-2,-6,-1,0,0
1512715114070796,0,-1,1,-1,-2,3,2,-1
1512715114079799,-2,-4,-3,-6,2,-4,-3,1
1512715114079799,1,9,2,2,-11,-3,-2,0
1512715114085825,-1,-9,-1,5,13,4,-1,-2
1512715114085825,0,20,2,1,-2,-4,0,-1
1512715114101800,-1,-9,-2,0,-1,0,-1,-2
1512715114101800,-6,-6,-1,-3,-1,2,-1,-8
1512715114107803,4,-1,2,-4,-7,-5,1,7
1512715114107803,-2,-3,-1,7,32,9,-2,0
1512715114116799,-3,1,3,-2,-9,-6,-4,-4
1512715114116799,-1,-2,-8,-1,0,-2,-3,-1
1512715114130801,-4,-5,-2,0,-5,-1,-1,-7
1512715114130801,2,-4,0,-6,-8,-4,-2,2
1512715114138806,-2,3,5,1,-5,-4,-3,-5
1512715114138806,-4,-1,0,-3,-6,-3,-6,-9
1512715114145804,0,2,2,-2,-6,-3,2,0
1512715114145804,2,-2,-1,2,18,9,0,0
1512715114161804,0,8,0,-2,-1,1,-1,-3
1512715114161804,1,-12,2,1,-4,0,-3,0
1512715114167804,-3,5,-9,-6,-1,-1,-1,-2
1512715114167804,-3,-6,-4,-4,-17,-9,-5,-7
1512715114176804,-1,-2,-1,1,2,0,-1,-1
1512715114176804,0,-3,0,-1,5,1,4,1
1512715114190806,1,1,0,-3,0,-1,-3,-2
1512715114190806,-2,0,0,-2,-6,-5,-4,-3
1512715114198809,-5,0,1,2,15,8,0,-2
1512715114198809,4,16,2,-2,-7,-7,-2,4
1512715114205804,-2,-13,-5,2,6,5,0,-2
1512715114205804,-2,-6,-2,-1,-2,-2,-1,2
1512715114221808,0,-6,-3,-3,-8,-1,1,0
1512715114221808,-3,2,0,-3,-6,-6,-3,0
1512715114227806,1,-2,-4,-2,3,0,-2,0
1512715114227806,-6,-9,2,-2,-6,-1,-3,-6
1512715114236807,3,14,3,1,-1,-1,2,8
1512715114236807,1,-4,3,1,2,0,-1,-1
1512715114249807,2,17,5,-1,-9,-5,-3,-2
1512715114249807,-2,-11,-2,0,-5,0,3,1
1512715114259809,-3,1,-9,-10,-13,-5,-3,-10
1512715114259809,-1,-12,-13,-4,8,1,1,7
1512715114272809,0,-10,4,6,8,1,0,1
1512715114272809,0,11,3,-1,-7,0,0,2
1512715114289810,-1,4,-3,1,-1,2,3,-4
1512715114289810,1,17,3,-3,0,1,-2,-3
1512715114290812,-2,-9,-7,-1,-7,-2,0,3
1512715114290812,-4,-6,1,0,0,-2,1,1
1512715114296814,-3,-7,-5,-4,-4,-3,-5,-2
1512715114296814,4,0,-5,-3,-3,-1,0,0
1512715114309811,-2,2,3,0,1,-1,-3,-3
1512715114309811,2,1,0,0,7,4,-5,3
1512715114319816,1,0,4,1,-1,-6,-2,0
1512715114319816,-4,-8,0,1,5,3,-1,-4
1512715114332818,-3,-19,-1,-1,0,5,1,-2
1512715114332818,-1,17,-3,-7,-9,-8,-3,-3
1512715114341817,3,1,-1,-5,-9,-6,-4,-2
1512715114341817,-2,-3,-2,3,3,0,2,3
1512715114347820,2,7,8,0,-3,-5,-3,-2
1512715114347820,-4,-11,-11,-11,-29,-9,-3,-5
1512715114356816,-2,-4,3,27,63,20,4,2
1512715114356816,-1,9,4,2,-3,0,-2,-3
1512715114370832,-2,1,4,3,3,0,-1,-1
1512715114370832,4,12,-4,-8,-8,-4,0,2
1512715114378823,-3,-6,-2,-6,-16,-4,2,2
1512715114378823,-3,-8,-1,-1,-4,2,0,-1
1512715114392823,-5,11,0,-3,1,-1,-6,-3
1512715114392823,-3,-9,-12,-4,-2,5,5,-3
1512715114401821,8,13,3,3,-8,-12,-3,4
1512715114401821,0,-3,4,-1,6,1,1,-1
1512715114407823,3,8,-6,-8,-10,-4,0,1
1512715114407823,-4,-21,1,3,14,7,2,-6
1512715114416824,-3,1,-7,-5,-4,0,-3,0
1512715114416824,1,-5,5,1,-4,-5,1,-1
1512715114430827,1,5,-6,-2,4,-1,1,-2
1512715114430827,-4,-6,0,5,7,1,0,-2
1512715114439824,0,3,1,-3,-8,0,-1,-3
1512715114439824,0,-3,-10,-3,4,0,1,1
1512715114452825,-3,-9,7,3,-4,-6,-4,-5
1512715114452825,1,10,-2,1,6,0,-5,-2
1512715114461864,-4,-16,3,-4,-11,-2,-6,-1
1512715114461864,-6,-10,-11,-6,-2,0,-1,-1
1512715114467826,4,16,-3,0,3,1,1,3
1512715114467826,0,-2,8,1,-1,-2,-2,1
1512715114476826,-1,6,5,-5,-6,-5,-5,-2
1512715114476826,-1,-2,-3,0,-2,1,0,4
1512715114490834,-5,-10,0,0,4,3,0,-9
1512715114490834,-2,-4,-1,-2,-2,-1,4,5
1512715114499830,0,3,0,-2,-5,-3,-1,-2
1512715114499830,-1,9,-2,1,6,3,0,-6
1512715114521833,-2,-15,-7,-5,-10,-4,-5,-1
1512715114521833,-2,-4,5,3,3,0,1,1
1512715114522846,-5,-7,-1,1,2,0,-1,-6
1512715114522846,1,2,4,-2,-5,-7,-3,-3
1512715114527833,2,-9,0,2,-1,0,-3,0
1512715114527833,1,16,1,1,1,-2,-2,-5
1512715114536831,-2,3,-3,-4,-4,-1,0,-1
1512715114536831,-1,1,-1,-3,-7,-3,-2,-2
1512715114549835,-4,-2,-4,-4,1,3,0,-3
1512715114549835,-1,-13,-5,0,-3,-7,-5,-3
1512715114559835,-4,-5,6,1,10,2,0,2
1512715114559835,6,-1,-2,0,-1,4,1,1
1512715114572837,1,14,9,0,0,1,1,3
1512715114572837,-6,-10,-7,-6,-3,-3,-4,-4
1512715114581836,4,2,-1,-1,-7,-2,0,0
1512715114581836,-4,-13,-6,-1,0,-3,-3,-1
1512715114587836,-2,-18,3,2,6,2,2,0
1512715114587836,0,12,0,-2,-1,0,1,1
1512715114602839,-2,8,-2,-1,-2,0,-1,-2
1512715114602839,-7,-6,1,5,2,2,-1,-3
1512715114609887,4,7,-1,-2,-6,-6,-5,2
1512715114609887,0,-7,5,1,2,0,0,-1
1512715114618839,-4,-19,-20,-4,1,0,-2,-1
1512715114618839,0,5,1,-6,-5,-8,-8,-4
1512715114632842,1,3,3,3,2,1,5,8
1512715114632842,1,10,-13,-4,-2,0,-2,-1
1512715114641843,2,9,6,2,-1,2,3,1
1512715114641843,-4,-28,-3,-1,-1,3,2,-1
1512715114647847,-1,7,5,-1,-2,-3,-2,-1
1512715114647847,-2,16,4,2,4,-1,-4,-1
1512715114662845,-7,-30,-7,-2,1,2,-1,-4
1512715114662845,7,17,2,-4,-4,-7,-6,-1
1512715114670843,-2,-7,-12,-2,-2,0,0,-2
1512715114670843,0,4,2,0,1,5,5,2
1512715114678846,4,15,6,-1,-3,-2,-4,1
1512715114678846,-4,3,7,2,2,4,2,-3
1512715114693846,2,-6,-5,-2,-2,-4,-2,4
1512715114693846,-4,-12,1,-2,-1,-1,0,-6
1512715114701848,3,2,3,1,1,-1,1,0
1512715114701848,-6,3,-10,-1,-3,-4,-2,3
1512715114707846,3,5,1,-1,0,-2,-1,-2
1512715114707846,1,-3,-4,-2,-7,-6,-3,-1
1512715114722845,0,-3,10,1,-2,-1,-1,1
1512715114722845,3,-4,0,-4,-5,-3,-3,-2
1512715114730849,-7,5,-6,0,-3,-1,-3,-12
1512715114730849,-2,-9,-6,-1,1,3,3,0
1512715114738863,1,0,7,1,-1,-1,-3,-3
1512715114738863,-3,-21,-5,3,1,1,0,2
1512715114752851,1,18,-4,-8,-4,-2,-5,-2
1512715114752851,3,5,10,6,3,1,1,0
1512715114761850,-3,-11,-4,-1,0,-2,0,1
1512715114761850,-1,-6,-7,-2,2,-2,4,6
1512715114775849,-3,-6,-2,0,-2,0,1,-2
1512715114775849,0,-4,1,1,1,0,-2,-1
1512715114782849,-5,3,-2,-2,-2,-1,-2,-1
1512715114782849,7,14,12,-2,-1,3,1,-2
1512715114790851,-5,-10,-5,-1,-1,0,-1,2
1512715114790851,1,-7,0,-1,-3,-4,-3,-4
1512715114799853,-6,-8,-7,-2,-1,-1,-1,-1
1512715114799853,-5,6,-1,-1,-1,-2,-1,-3
1512715114812851,1,-5,1,0,0,-1,1,0
1512715114812851,0,4,-4,-2,-3,1,-2,2
1512715114829852,7,11,11,1,1,-1,-1,3
1512715114829852,0,-7,-11,-4,-2,-1,1,5
1512715114830855,-4,3,4,0,0,-3,1,-1
1512715114830855,-1,3,-7,-2,0,-2,-3,0
1512715114842852,-1,-5,-16,3,0,-1,1,-4
1512715114842852,-2,-7,-5,3,2,2,3,-2
1512715114849887,0,3,1,1,-3,-4,-5,-3
1512715114849887,3,-8,3,-2,-2,-2,-1,3
1512715114858853,-3,-10,-14,-4,-1,-1,-1,-3
1512715114858853,-7,-12,1,0,1,1,1,-2
1512715114872853,3,-2,-6,-2,-2,-2,-1,-1
1512715114872853,-2,7,11,-2,-2,-4,-5,-4
1512715114881855,-4,5,3,-1,-1,2,2,-1
1512715114881855,-2,-8,-10,-2,-3,-3,-5,-8
1512715114887887,2,-9,2,1,-1,-1,3,4
1512715114887887,0,24,2,-2,-3,0,3,9
1512715114902858,-2,-26,-8,-4,0,-1,-1,-1
1512715114902858,1,17,8,0,0,0,-3,-1
1512715114910857,-1,1,2,-2,0,0,-1,-1
1512715114910857,-2,-10,-7,1,0,-2,-3,-7
1512715114918858,-1,3,3,-1,-1,-3,0,-1
1512715114918858,-1,5,-14,-1,-2,-2,-4,0
1512715114932859,-4,-10,8,4,2,0,-2,-5
1512715114932859,-2,5,11,1,-1,-1,-3,-3
1512715114941861,2,3,1,-1,1,3,1,1
1512715114941861,0,-1,0,-3,-3,-3,-7,-4
1512715114955861,2,1,-3,-3,-4,0,-1,-1
1512715114955861,-1,-2,-2,-2,-1,-2,-5,-2
1512715114962862,0,3,-17,-3,-5,-5,-2,5
1512715114962862,0,-6,0,-2,-1,0,0,-2
1512715114978861,2,1,-16,1,2,2,1,-2
1512715114978861,-3,2,7,-6,-5,-2,2,3
1512715114980863,-2,-15,3,0,-2,-4,-3,2
1512715114980863,2,27,7,0,-1,-1,3,2
1512715114992863,-5,-1,-4,-2,-2,-2,-2,-4
1512715114992863,2,-4,-10,1,-1,-1,-1,-1
1512715115002864,-2,4,6,1,-2,0,-2,-4
1512715115002864,-3,0,8,0,0,0,0,0
1512715115019865,-1,-4,-5,-2,-1,1,1,-1
1512715115019865,0,-2,3,1,2,0,-2,-4
1512715115022865,-4,-4,-9,-6,-3,-4,-4,-3
1512715115022865,0,1,2,2,-1,0,-1,-1
1512715115039865,-1,8,3,-1,-1,-1,0,3
1512715115039865,-4,1,10,0,0,-3,2,-1
1512715115040866,-3,-15,-16,-3,2,1,-2,-4
1512715115040866,0,-2,-8,-2,-3,-2,0,1
1512715115052869,1,31,0,-1,-1,0,1,-1
1512715115052869,-3,-25,-10,0,-1,-1,1,-1
1512715115061867,2,0,-6,-2,-1,0,0,0
1512715115061867,-1,5,4,1,1,0,-1,-3
1512715115075869,-4,-6,2,-1,-2,-1,-1,-1
1512715115075869,1,-1,-1,-2,-1,0,-1,0
1512715115082870,4,8,9,2,-2,-1,-2,1
1512715115082870,-3,-14,-7,-2,0,-2,-1,-6
1512715115098869,0,-2,3,0,-1,-2,-1,-1
1512715115098869,-4,-9,-8,-1,0,0,-2,-8
1512715115100871,2,2,-8,-3,0,0,5,3
1512715115100871,-3,-2,4,-1,-1,-3,1,-1
1512715115112871,-3,-3,-2,-2,-1,-2,-1,1
1512715115112871,0,8,-7,-3,-4,-1,-1,-1
1512715115121869,-5,-2,5,-3,-2,-3,-4,-5
1512715115121869,-1,-6,-4,0,1,0,-2,0
1512715115135872,-6,-19,-9,-3,1,1,1,-4
1512715115135872,2,7,10,0,-1,-2,0,2
1512715115142871,3,9,15,2,0,0,-2,2
1512715115142871,0,1,-4,-3,-1,-2,0,-2
1512715115168873,-4,-18,-4,0,-1,-2,-6,-3
1512715115168873,4,2,-7,0,1,0,-1,-1
1512715115168873,-4,1,-1,1,-2,-1,-2,0
1512715115168873,-1,-5,-2,-4,0,0,-1,-4
1512715115172873,5,13,4,-2,-3,-2,-3,-6
1512715115172873,-2,3,-3,-2,-2,0,3,7
1512715115181874,-1,-5,-4,0,-1,-2,-2,-5
1512715115181874,-1,-6,3,1,-1,-2,1,2
1512715115195873,-2,6,3,1,-1,-2,-1,1
1512715115195873,0,-2,1,-1,-1,-1,-1,-1
1512715115203873,-3,10,0,1,-1,0,-1,-2
1512715115203873,-3,-19,-15,-3,-1,0,-1,0
1512715115218874,0,-3,-1,-4,-5,-6,-5,0
1512715115218874,-2,-3,-9,-4,-1,-1,0,-3
1512715115220875,-1,2,-13,-5,-3,-1,-1,1
1512715115220875,-3,4,13,4,0,1,-3,-6
1512715115232878,-2,-10,-13,-3,-1,-2,1,0
1512715115232878,-4,-5,5,2,0,0,-1,-4
1512715115242879,3,6,-10,-2,1,-2,0,4
1512715115242879,-1,9,-1,-2,-2,-1,0,7
1512715115255877,-7,-10,4,0,0,-1,-1,-4
1512715115255877,1,4,-7,1,1,0,-1,4
1512715115262875,-2,-13,5,0,-1,-1,-1,-6
1512715115262875,2,12,7,-2,-2,-2,-2,-1
1512715115278876,0,0,-3,-1,1,1,1,1
1512715115278876,-2,-6,-2,-3,-3,-1,-2,-2
1512715115280879,-1,10,-3,-1,0,0,-1,2
1512715115280879,0,-4,6,0,1,2,0,1
1512715115292881,0,-5,-5,-2,0,-2,0,-2
1512715115292881,-2,10,1,0,-1,-2,0,-3
1512715115301879,-3,-4,1,-2,0,-1,-2,-6
1512715115301879,2,-2,-11,-2,0,-1,-1,-2
1512715115315878,-1,3,6,1,-1,0,0,2
1512715115315878,-2,-10,-3,1,-1,-2,-2,-2
1512715115322913,-1,6,0,0,-3,-3,0,-5
1512715115322913,0,-2,-2,-4,-3,-4,-2,-1
1512715115338913,1,7,2,1,0,0,1,-3
1512715115338913,-4,-8,-11,-3,-1,1,0,2
1512715115344879,-2,-6,4,0,-1,-1,-3,-2
1512715115344879,-1,4,1,1,0,1,0,-3
1512715115352910,-1,-2,2,0,2,3,3,4
1512715115352910,2,-6,3,-3,-4,-2,0,-3
1512715115361884,1,12,2,-1,0,0,-1,0
1512715115361884,-2,3,-3,1,-2,-2,-1,1
1512715115375882,-2,-2,14,-1,-2,-2,-3,0
1512715115375882,2,-6,5,1,0,1,0,2
1512715115382884,-2,-5,1,0,1,2,2,2
1512715115382884,-1,3,3,-4,-2,-2,-2,-3
1512715115398884,-1,-2,-7,0,-1,-1,-2,-5
1512715115398884,1,-4,-2,-1,1,-1,1,0
1512715115400887,-1,6,9,-1,-2,-3,-1,2
1512715115400887,-1,-9,-10,0,1,2,2,-1
1512715115412886,0,2,-6,-4,-3,-4,-1,-1
1512715115412886,-5,-1,-1,-1,-1,-4,-1,-6
1512715115421889,2,1,-4,0,0,1,0,-2
1512715115421889,-1,-5,1,-1,0,-1,-2,-1
1512715115435887,-1,-6,-1,-1,-1,1,-1,2
1512715115435887,0,7,-3,-1,-2,-3,-2,2
1512715115442888,-2,-4,1,-2,-1,0,-2,-1
1512715115442888,-3,-2,-1,0,-2,-3,-3,-3
