timestamp,emg1,emg2,emg3,emg4,emg5,emg6,emg7,emg8
68152958320,-1,-1,-1,-1,-1,-2,-1,-2
68152958320,0,-3,-2,-3,-2,-2,0,1
68152959144,-2,1,-1,-1,-3,-5,-2,-2
68152959144,-1,0,-1,-1,2,-1,-1,-2
68152959905,0,-2,1,-1,2,2,0,-1
68152959905,-1,-2,1,-1,-2,-3,-3,-3
68152960703,-1,0,1,0,-1,0,-1,0
68152960703,-2,0,-2,-2,-4,-2,-3,-1
68152971405,0,-1,-4,-3,-4,-4,-2,-1
68152971405,-1,1,-1,0,1,-1,-2,-2
68152980046,0,-5,-2,-2,-1,-2,-1,0
68152980046,-2,-2,0,1,-1,-2,0,-1
68152987769,-3,-1,-1,0,-1,1,0,-1
68152987769,-2,2,-1,0,0,-2,-2,-2
68153001995,-2,0,-3,1,1,1,0,-3
68153001995,-1,0,0,0,0,-1,0,0
68153010109,-1,-1,-1,-2,0,-2,-2,-2
68153010109,-1,-1,-1,-2,0,0,-2,-1
68153016402,-1,-1,-1,-3,-2,1,-2,0
68153016402,0,0,-1,0,1,1,-1,-1
68153031322,-2,-5,-1,-1,-3,-1,-1,-1
68153031322,-3,1,0,1,-2,-1,1,-1
68153078159,0,-1,-1,-1,-1,0,-2,-2
68153078159,0,1,-1,1,-2,-1,-2,-1
68153078922,1,0,-1,-2,1,0,1,-1
68153078922,-2,-1,-2,-1,-3,-3,-1,-1
68153079623,-1,-1,1,-2,-1,-1,-1,1
68153079623,-2,-2,-1,1,1,0,-1,-2
68153080576,-2,2,-1,-1,-1,-1,-1,-1
68153080576,-1,-4,-3,-4,-2,-2,-2,-1
68153091247,-1,-1,-2,0,0,0,0,0
68153091247,-1,-1,-4,-1,2,-1,-1,0
68153098709,0,-3,-1,0,-2,0,-3,-1
68153098709,1,1,1,-1,-2,-1,-1,-1
68153107575,-1,-2,0,0,0,-2,-1,0
68153107575,-1,-1,0,-3,-2,-2,-2,-2
68153121965,-1,-3,-4,-2,-1,-3,-2,-2
68153121965,-1,-1,0,-2,0,-1,-1,-1
68153128763,-1,-1,-2,-1,0,1,-1,-2
68153128763,-1,2,1,1,1,-1,1,0
68153136262,-3,-8,-1,-1,-2,-2,-2,0
68153136262,-2,2,-2,0,0,1,0,0
68153151271,0,-1,1,0,-1,0,0,-1
68153151271,-2,-1,0,0,-3,-2,-1,-2
68153158779,-1,2,2,-2,-3,-2,-2,-3
68153158779,1,0,-2,-1,0,2,0,-1
68153167556,-1,-3,-4,-4,-3,-1,0,0
68153167556,0,-1,-1,-1,1,1,1,0
68153181874,-2,-2,0,0,2,2,0,0
68153181874,-2,-1,0,1,0,-2,-1,0
68153188565,0,3,-1,0,0,-1,-2,-1
68153188565,-2,-3,-3,-3,-5,0,-1,-1
68153196273,-2,0,-1,-2,-2,-1,-2,-1
68153196273,-2,-1,-1,0,0,-1,-1,-1
68153211309,-1,0,0,0,-1,-3,-1,-2
68153211309,-2,-2,-1,-5,-1,-4,-2,-2
68153218780,1,1,-1,1,-1,0,0,-2
68153218780,-1,1,0,-2,0,2,1,-1
68153227640,1,1,-1,-2,-2,-4,-4,-1
68153227640,-1,-3,-1,-2,-3,0,-2,-1
68153241964,-1,-1,-2,-3,-4,-3,-2,0
68153241964,-1,-3,0,1,0,-1,-1,-1
68153248720,-2,-2,0,-1,0,0,-2,-1
68153248720,-2,-2,-2,-2,-1,0,-2,-2
68153256300,-2,1,-2,0,1,1,-1,0
68153256300,1,1,-2,-3,-2,0,1,0
68153271021,-2,-12,-1,-2,-4,-1,-3,-3
68153271021,-3,-1,0,0,-1,-2,-1,-2
68153278783,-2,3,1,0,-2,-1,-2,-1
68153278783,-3,-3,-2,-2,-2,-5,-2,-2
68153287559,0,2,-1,-1,1,3,2,0
68153287559,1,-1,-1,0,-1,-5,-1,-1
68153301919,1,-5,-2,-3,-1,0,0,0
68153301919,0,0,-1,-2,0,-1,-2,-1
68153308710,-1,2,-4,-3,0,-1,-1,-1
68153308710,-1,-2,2,0,1,0,-1,0
68153316178,0,0,-1,-5,0,-3,0,-2
68153316178,-1,-2,-1,0,0,-2,-3,-1
68153331253,0,-2,-2,-1,-2,-1,-2,-2
68153331253,1,2,-2,1,0,2,1,1
68153338623,-1,1,-1,1,-2,-2,-2,0
68153338623,-1,-6,-2,-2,-4,-3,-4,-3
68153347634,-1,1,0,2,1,-1,1,1
68153347634,0,0,-1,1,0,0,-1,0
68153361828,-1,0,1,-1,0,3,1,-1
68153361828,-1,-3,-1,-1,-2,-2,-2,1
68153368690,1,2,-1,-2,-3,-3,-2,0
68153368690,-1,0,0,-1,-1,-3,-1,-2
68153376213,-1,-2,-1,-2,0,-3,0,-1
68153376213,-1,-1,0,0,1,-1,1,-1
68153391292,-1,-1,0,-4,-5,-5,-2,-1
68153391292,-1,4,-1,0,1,0,0,-1
68153398768,1,0,-4,-1,-4,-2,-4,-2
68153398768,0,1,-1,1,2,2,0,-2
68153407636,-3,-2,0,1,-1,1,-1,-1
68153407636,-1,-7,-2,-5,-4,-2,-2,-3
68153421926,-2,0,-3,0,0,-2,-1,-1
68153421926,0,-2,-2,-1,3,3,1,-1
68153428749,1,5,-2,-1,0,-1,1,0
68153428749,0,-3,0,1,1,0,0,0
68153436080,-1,-2,-1,-2,-1,-2,-1,0
68153436080,-1,0,-2,-2,-2,0,-3,0
68153451269,-2,-2,1,1,0,0,0,-1
68153451269,0,2,-1,0,-2,-2,-2,-3
68153458819,0,0,-1,-2,-1,0,-1,-1
68153458819,0,-1,2,0,-2,-3,-4,-2
68153467528,-2,-1,1,-2,-3,-3,-1,-1
68153467528,0,-2,-9,-4,1,-1,1,0
68153481910,-1,0,9,8,0,-1,-1,0
68153481910,-1,0,-4,-1,-2,0,1,0
68153488793,-2,-2,-2,-2,-2,-1,-2,-2
68153488793,-1,-3,-1,0,-1,1,0,1
68153496264,-2,-3,-6,-5,-2,-2,-2,-2
68153496264,0,-1,2,1,2,2,0,-1
68153511303,-1,0,2,2,-1,2,1,-1
68153511303,1,0,0,-3,-1,-2,-4,-1
68153518605,0,-1,1,1,-1,-1,1,0
68153518605,-2,-1,0,-1,-5,-3,-2,-1
68153527603,0,-2,-3,-2,0,-2,-4,-2
68153527603,-2,0,2,1,0,-1,-1,-1
68153541864,-1,-3,-1,0,1,1,1,-1
68153541864,-1,-1,-4,0,-1,-3,-3,-2
68153548593,1,3,1,-1,0,0,0,0
68153548593,-2,-2,0,0,-2,-1,-3,1
68153556176,1,0,-2,-3,-3,-3,-2,-3
68153556176,0,-2,1,-1,-2,-1,-1,0
68153571151,-1,1,-2,1,3,1,0,-1
68153571151,-1,2,0,-4,-2,-1,-1,-1
68153578790,-2,-4,-1,7,-4,-3,-2,-2
68153578790,-1,1,-2,-2,-1,1,-1,1
68153587534,0,0,-3,1,0,0,0,-1
68153587534,-2,-5,-3,-3,0,2,1,-2
68153601890,0,0,-3,-3,-1,-2,-3,-3
68153601890,-3,1,2,0,-2,-3,-2,-1
68153608585,0,-2,-2,-2,-3,-2,-2,-1
68153608585,-5,2,1,6,1,0,2,-1
68153616203,-1,1,-12,-16,-3,-1,-1,2
68153616203,-3,1,23,15,-1,-2,-2,-5
68153631248,5,-3,-12,-14,-2,-1,-4,-3
68153631248,0,2,9,11,0,-1,-2,-1
68153638775,-4,0,-21,-14,0,1,0,0
68153638775,7,-4,-1,-5,1,-1,1,3
68153647672,-13,-4,10,2,-4,-3,-2,-1
68153647672,-8,4,-5,-10,-1,-1,-2,-8
68153661862,-2,-5,-6,-2,2,0,-2,-2
68153661862,14,3,-9,6,0,0,0,7
68153668744,-18,0,-13,-23,-2,0,-2,-27
68153668744,7,-3,-4,7,-1,0,0,17
68153684512,-17,-2,11,6,-1,-1,0,-9
68153684512,4,-1,0,-3,2,0,-3,-12
68153691348,13,2,6,4,-2,-1,0,3
68153691348,-5,-2,0,-1,-3,-1,-2,-4
68153698829,-1,3,5,18,4,3,0,-3
68153698829,-1,3,9,-19,-3,-3,0,5
68153707571,4,-7,-3,22,2,-2,0,8
68153707571,-2,-5,-28,-31,-3,-3,-3,-9
68153721778,8,0,11,11,1,1,1,7
68153721778,-18,3,-2,1,0,-1,0,-4
68153728604,9,2,2,0,-1,-1,-2,2
68153728604,-1,2,23,10,0,0,0,-3
68153744362,6,4,15,10,2,0,-2,0
68153744362,3,-12,-30,-12,-2,2,1,6
68153751050,-10,1,26,5,-1,-3,-1,-6
68153751050,2,1,1,8,-2,-2,0,17
68153758618,-1,-22,-79,-49,-11,-3,-3,-4
68153758618,-4,1,25,16,0,-2,-1,3
68153767613,-2,-2,7,-5,0,2,1,3
68153767613,14,2,-29,-3,0,-1,-2,1
68153781777,5,3,32,21,1,-2,0,10
68153781777,-8,3,-14,-12,4,3,1,-4
68153788718,8,-8,-4,7,-2,2,-2,-2
68153788718,1,3,17,0,-1,-4,-1,-3
68153804393,-9,-2,1,-8,-4,-2,-1,-5
68153804393,1,-8,-25,-4,-6,-2,-2,-6
68153811042,0,9,5,3,2,1,0,-2
68153811042,-1,-9,17,5,-3,-1,-1,-2
68153818745,-1,-8,-26,-4,-4,-3,-2,-2
68153818745,-9,4,16,7,0,0,-1,-5
68153827563,-2,-1,-19,-6,-1,1,1,13
68153827563,-6,-3,-2,-11,-7,-4,-4,-21
68153841978,-1,5,10,2,2,-1,-1,-3
68153841978,1,-3,9,-1,-2,-2,-1,2
68153848617,-2,0,-13,-2,-2,-2,0,-2
68153848617,2,-6,-17,0,-5,-3,-4,1
68153864418,-1,7,2,0,4,4,2,4
68153864418,-5,6,-11,-1,-2,-2,-3,-4
68153871156,5,-12,-16,-8,-3,-4,-1,7
68153871156,-6,-1,21,-1,-1,0,1,-2
68153878830,2,5,9,1,-3,-4,-1,-2
68153878830,3,0,-7,-4,-2,0,0,0
68153887635,-2,5,-18,-4,2,-1,0,-2
68153887635,-7,-6,-4,1,-2,0,0,-2
68153902075,-1,-2,10,0,2,1,0,-3
68153902075,-1,-3,-4,-1,-3,-2,-2,-3
68153908715,-3,-4,6,3,3,2,-2,-1
68153908715,3,2,-7,-2,-1,1,0,1
68153924387,3,7,16,17,11,0,-2,-2
68153924387,0,8,-10,-4,3,0,0,0
68153931212,-5,-13,-3,-11,-10,-6,-4,-3
68153931212,-2,-6,-18,2,3,2,2,2
68153938716,-2,-2,14,0,-2,2,2,-3
68153938716,5,-3,-6,-5,-3,-3,-2,-1
68153947557,-7,6,16,-1,-4,-4,-3,-2
68153947557,2,6,1,-1,-1,2,1,0
68153970056,-7,-13,-11,-3,-3,2,1,-1
68153970056,10,-10,5,-2,0,-2,-5,-9
68153971597,9,6,12,6,4,2,0,4
68153971597,6,3,7,-3,-3,-2,-1,4
68153984456,2,-5,-14,-6,-5,-5,-4,-1
68153984456,-8,-7,9,4,-1,1,0,-1
68153991167,1,-6,-14,-2,-3,-1,-3,-5
68153991167,-3,3,-7,3,-1,-3,-1,2
68153998743,-1,3,13,-6,-7,-2,-1,0
68153998743,-1,-1,10,14,20,3,1,2
68154013806,-3,3,-1,3,3,2,1,-1
68154013806,-5,-8,-6,-6,-1,-1,0,-4
68154021813,0,2,-4,-5,-6,-1,0,-2
68154021813,-5,-4,-2,-3,-9,-1,-1,-1
68154028710,0,0,16,6,2,0,1,2
68154028710,-4,3,4,-4,2,-2,-5,-6
68154044227,2,3,-4,-1,-1,-3,-3,0
68154044227,-2,-3,-1,-4,-6,-1,-1,3
68154051264,-2,2,-7,-11,-9,-4,-2,-2
68154051264,2,-1,5,11,12,1,0,-1
68154066986,-1,-1,2,-3,-2,-3,0,0
68154066986,-2,-1,6,1,0,2,0,1
68154073514,-3,-11,-9,-4,-6,-1,0,-2
68154073514,-3,0,-3,-9,-7,-2,-2,-4
68154081257,-3,-2,-4,2,3,1,3,1
68154081257,5,2,1,1,3,2,1,5
68154090087,0,10,3,2,0,-1,0,-2
68154090087,-5,-6,0,1,-7,-4,-3,-1
68154104440,-1,-1,-6,-4,10,1,-2,-2
68154104440,0,3,-1,2,-5,-5,-3,-1
68154111361,2,-1,-6,-7,-2,-2,-2,-1
68154111361,-4,1,-6,0,1,1,2,-3
68154126909,1,2,-5,-4,-6,0,-1,1
68154126909,-2,-7,-8,-5,-6,-5,-4,-2
68154133580,-5,-3,-1,1,4,-1,1,-4
68154133580,5,-1,2,-1,1,2,-3,-3
68154150094,-3,6,12,1,-1,0,-1,-4
68154150094,8,-7,-1,1,3,4,4,3
68154151512,-15,-12,-13,-2,-9,-6,-3,2
68154151512,0,2,0,-1,2,3,2,0
68154164224,-3,-1,3,0,-1,-2,-1,-1
68154164224,-5,2,-4,-6,-8,-5,-2,-4
68154171199,5,7,11,9,6,0,-1,-2
68154171199,0,-5,-2,-1,-9,-3,0,0
68154186926,0,-4,-7,-7,7,1,-2,1
68154186926,-3,4,1,-5,-7,-3,-2,-2
68154193629,-1,-3,1,-3,0,1,-1,3
68154193629,8,3,-3,0,3,3,6,3
68154210161,-6,-5,-1,2,-3,-1,-2,-14
68154210161,-6,0,-2,-2,-2,-1,-4,-4
68154211547,17,16,4,2,1,0,-1,4
68154211547,-12,-14,5,-3,-3,-3,-3,3
68154224309,-1,-2,-11,-4,-5,-4,-4,-6
68154224309,0,13,21,2,3,0,-1,-2
68154231073,-7,-19,-31,-3,-2,2,-1,-6
68154231073,2,8,-3,1,-2,-3,-1,0
68154246866,4,-4,3,5,4,1,2,3
68154246866,-5,-10,-10,1,-2,-2,-4,-1
68154253552,2,2,5,-5,-4,-2,4,-2
68154253552,1,1,-1,-4,-5,-5,-13,-2
68154270132,-3,-3,-4,-1,-1,1,7,0
68154270132,0,-3,-8,-2,-1,-2,0,0
68154271538,7,2,9,1,2,4,1,6
68154271538,-12,0,-3,1,2,0,0,-2
68154283750,-6,-5,4,1,-3,-2,-3,4
68154283750,16,1,-3,-3,-3,-1,-2,8
68154292604,-8,0,2,-1,1,0,-1,-28
68154292604,-4,-1,2,-3,-3,-2,-1,-3
68154306719,-4,5,-6,-3,-4,-2,-5,-1
68154306719,-3,-1,3,0,0,-1,2,0
68154313792,0,-9,-12,-1,-2,-4,-4,5
68154313792,4,5,3,-1,0,1,0,-3
68154330050,0,0,-3,0,-2,-2,0,-1
68154330050,0,-4,-7,-3,0,-2,-3,-6
68154331584,-8,3,6,-1,-1,-1,-3,1
68154331584,0,-4,-1,1,3,2,1,0
68154343791,9,-2,1,-2,-4,-1,-2,2
68154343791,-3,3,-3,0,0,-3,-1,0
68154352593,-1,-2,0,-2,-2,-2,-1,2
68154352593,-2,-4,-3,-1,-1,-1,1,3
68154366942,0,1,-1,-1,-2,0,-3,-8
68154366942,-1,-2,-4,1,0,-2,-2,-3
68154373752,-2,-3,2,-2,0,0,0,2
68154373752,1,-4,-3,-1,-1,-2,-2,-3
68154389450,3,4,3,0,0,0,-1,4
68154389450,-4,-3,-3,-3,-3,-3,-2,-3
68154390088,-1,-3,-1,0,2,-1,0,1
68154390088,3,1,-1,-1,-2,-1,-1,0
68154411774,6,-2,-1,0,-2,0,-1,2
68154411774,-6,-2,-2,0,-1,1,-1,-3
68154412522,-1,1,2,0,0,0,-1,0
68154412522,0,4,-1,-1,-2,-1,-3,-2
68154426303,-2,-7,0,-1,-1,0,0,0
68154426303,2,0,-3,-1,-1,-2,0,-2
68154433815,0,2,0,1,1,1,0,0
68154433815,1,2,1,-2,0,-1,-1,-3
68154449409,0,0,0,0,-1,-1,1,1
68154449409,-1,-1,-1,0,-1,1,-1,1
68154450046,-5,1,1,-1,-2,-3,-2,0
68154450046,-2,-5,-3,-2,-3,-1,0,-2
68154471961,5,0,0,-3,-3,-3,-2,0
68154471961,-11,-3,-2,-2,-2,0,3,-3
68154472636,4,-1,-2,-2,-2,-1,1,-1
68154472636,-3,-3,-3,-2,0,0,0,-2
68154487613,-1,1,0,-1,-1,-3,-1,-1
68154487613,2,1,-1,0,0,2,0,0
68154493537,3,-2,0,-3,-2,-2,-2,-4
68154493537,-1,-4,-1,0,-1,-1,0,0
68154509412,-7,-1,-1,0,1,0,0,2
68154509412,11,-1,-1,-2,-3,-2,-1,1
68154510062,-5,-4,1,0,0,1,-3,-2
68154510062,3,-1,-1,-1,0,3,2,1
68154531908,-3,-3,1,0,0,-2,-2,-8
68154531908,-3,0,0,0,-2,-1,-1,-1
68154532658,2,2,-1,-1,-3,-3,-4,1
68154532658,1,1,0,1,2,0,2,0
68154546379,-4,-1,0,0,-3,-3,-3,0
68154546379,-1,-1,1,-4,-3,-4,-3,-1
68154553535,0,-3,0,-1,0,2,2,-1
68154553535,-2,1,0,1,2,1,0,3
68154569340,-1,-1,-1,-1,2,-1,-2,0
68154569340,-1,-2,-1,-1,-1,0,-1,-1
68154569986,0,0,0,-1,-2,-2,-1,0
68154569986,-2,-1,-2,-2,-2,-2,-2,-4
68154585007,1,0,-2,-1,0,2,0,0
68154585007,0,0,-4,-1,1,0,-1,2
68154591246,-5,-1,-2,-1,-1,-2,-3,-5
68154591246,-1,-2,-2,-2,-1,-2,-1,1
68154606202,0,3,-1,0,-3,-1,-1,-2
68154606202,0,-2,-1,0,0,0,-1,1
68154613752,-1,0,0,-1,-2,-2,-1,0
68154613752,1,-2,1,-1,1,1,-1,-2
68154629181,1,0,0,0,-3,-1,1,0
68154629181,-2,-2,0,-1,0,0,0,-2
68154630197,0,-1,-3,-1,1,-1,-2,1
68154630197,0,-2,-1,-2,-4,-4,-4,-4
68154645083,-1,-2,-1,-1,1,-1,2,2
68154645083,-1,0,-1,1,-1,-3,-3,0
68154651185,-2,-3,1,0,0,1,0,-6
68154651185,-2,0,-2,-2,-4,-2,-2,2
68154666211,0,-3,-1,0,0,0,-1,0
68154666211,-1,-1,-2,-1,-1,-2,-2,-4
68154673563,-2,-2,0,0,-3,-4,-2,2
68154673563,-1,-3,0,-2,0,0,-2,-1
68154689431,-2,-1,1,-1,-1,1,-2,0
68154689431,0,-2,-1,0,-1,1,0,-2
68154690024,1,0,-3,-2,-2,-1,-3,1
68154690024,-1,-2,1,-1,-1,0,0,-2
68154705047,0,-1,-1,0,-1,0,-1,1
68154705047,0,-2,-2,-1,2,0,0,-2
68154711307,1,-1,-1,1,2,2,0,1
68154711307,-3,-2,-2,-1,0,-3,-1,-2
68154726225,-1,-2,-3,-1,-1,-3,-2,-2
68154726225,-2,0,0,-2,-3,-1,-2,0
68154733799,1,-1,0,-3,-3,-1,0,-1
68154733799,0,0,0,-1,-2,0,0,0
68154749206,-1,-2,-1,-2,-1,-2,-2,-2
68154749206,-1,-1,-1,1,0,-1,0,-1
68154750196,0,1,-1,-2,-2,-1,-1,1
68154750196,-2,-1,-1,0,-1,-1,-1,0
68154765031,0,-2,-1,0,-1,-1,-1,-2
68154765031,0,0,-1,-1,-2,0,-1,-1
68154771266,-2,-2,-1,-1,0,-1,-1,-1
68154771266,-1,0,-2,-1,-1,-2,-1,-2
68154786295,1,0,0,-2,-1,-2,-3,0
68154786295,-1,-3,1,0,-1,-1,0,0
68154793798,0,-3,-1,0,-1,-2,0,0
68154793798,-1,-2,-1,0,0,0,-1,-2
68154809490,-2,0,-1,-1,0,-1,0,-1
68154809490,-1,-1,0,-1,-1,0,-1,0
68154810009,-1,-2,-1,0,-2,-1,-1,-1
68154810009,0,-1,-2,-2,0,-2,-1,1
68154825069,-1,-3,-1,0,0,-1,-2,-1
68154825069,-2,0,-2,0,0,1,-2,-2
68154831330,0,0,-2,-1,0,0,0,-1
68154831330,0,0,-1,0,-2,-1,0,-1
68154846296,-2,0,-1,-1,-1,-2,-2,-2
68154846296,-2,-2,-1,-2,-2,0,2,-2
68154853642,-2,-1,-1,0,0,0,2,0
68154853642,-1,-2,-2,-2,2,1,-1,-1
68154869165,0,0,-3,0,-1,-1,-1,-1
68154869165,-2,-1,-3,-1,-2,-3,-3,-1
68154869991,-2,-2,-1,-1,-3,-4,-4,0
68154869991,-1,0,-1,-1,-2,-3,-1,-2
68154885042,-4,-4,-3,-1,0,1,-1,-1
68154885042,-2,2,0,-1,-1,-1,-1,-1
