timestamp,emg1,emg2,emg3,emg4,emg5,emg6,emg7,emg8
68120415997,-1,-1,0,2,3,3,10,2
68120415997,0,-1,0,1,-2,0,-1,-1
68120416647,-1,-1,0,1,0,1,-3,0
68120416647,-1,-1,0,-2,-2,-1,1,-2
68120417587,-1,-2,-1,-2,-10,-3,-5,-2
68120417587,-1,-1,0,-2,8,2,-2,0
68120418318,0,-1,-3,-2,-2,-3,-6,-1
68120418318,-2,1,-1,1,0,-2,-8,-2
68120430400,1,-1,-2,0,-2,-1,2,-1
68120430400,0,0,-2,-5,-4,-1,-2,0
68120437781,-1,0,-2,-1,-2,-2,3,-3
68120437781,-1,-2,0,-1,1,2,-4,-1
68120445390,-2,-1,-2,0,1,-2,7,-2
68120445390,0,-1,-1,2,1,1,1,0
68120459117,-1,0,0,-3,-3,-4,-2,0
68120459117,2,-1,-2,-1,-1,-1,6,0
68120470489,-1,1,0,1,2,0,-7,0
68120470489,-3,-7,-3,0,-2,-3,0,-4
68120474007,0,-2,-2,-1,-3,-1,-7,0
68120474007,0,2,0,-2,5,-4,-5,-3
68120489156,-2,-6,-3,-1,3,1,-3,-1
68120489156,-1,-1,-1,-1,1,1,1,0
68120497398,-1,1,1,-2,-2,-4,-10,-2
68120497398,-1,-3,-1,1,-1,4,18,2
68120537179,0,0,-1,-1,0,-1,-7,-2
68120537179,-2,-1,0,-1,-1,-3,-15,-3
68120537959,1,0,0,-2,1,2,13,0
68120537959,0,-1,0,0,1,-4,-14,-2
68120538802,2,0,-2,-3,0,1,8,-1
68120538802,-2,0,-1,2,3,2,3,-3
68120542080,0,-5,-2,0,-3,-3,-8,0
68120542080,-3,-2,-3,-1,0,0,2,-2
68120548862,-2,0,0,-1,1,-1,-3,-2
68120548862,-1,1,-1,-1,-2,-1,2,-1
68120556267,0,1,1,-1,0,0,0,0
68120556267,-1,0,0,-2,0,-1,4,-2
68120565209,-2,-2,-1,-1,-9,-1,-3,0
68120565209,1,-1,0,2,8,3,5,2
68120578868,-2,0,0,-1,-3,-1,-1,-2
68120578868,-1,1,-3,-2,-4,-3,-8,-2
68120587693,-1,0,0,-2,-2,0,-6,-2
68120587693,-1,-2,0,-4,-7,-5,3,1
68120593906,-3,-5,-2,-1,2,0,-10,-2
68120593906,-3,0,0,1,0,4,15,0
68120608757,-1,-4,-1,1,0,-2,-3,-1
68120608757,-1,0,-3,-2,-1,-1,-2,-2
68120616411,0,4,-2,-2,-1,-1,-4,-1
68120616411,0,-1,0,0,-4,-2,-3,-3
68120625121,-1,1,0,-1,-2,0,1,0
68120625121,-4,-4,-1,-2,1,2,-1,0
68120638785,-1,0,-3,-3,-5,-5,-3,-1
68120638785,-2,-1,-4,-3,0,-2,-7,-1
68120648344,1,3,-3,2,2,2,4,-1
68120648344,0,1,-3,-1,-1,-2,-6,-2
68120653783,0,-3,-2,-1,-1,0,9,2
68120653783,0,0,0,-2,2,0,-5,0
68120668747,-1,-3,-3,-6,-5,-7,-2,-1
68120668747,-2,-3,0,0,4,2,-1,0
68120676385,-1,-1,-1,1,-1,-2,-6,-2
68120676385,0,-1,1,1,1,3,3,1
68120685229,-2,-1,-1,-1,1,-3,0,-2
68120685229,1,-4,-3,-2,-4,-3,-3,-3
68120698875,-2,0,-1,-2,-2,-4,-3,-2
68120698875,0,-2,-1,-4,-1,2,5,1
68120707640,-1,0,1,3,2,3,1,2
68120707640,-1,-1,-2,-5,-8,-5,-5,-2
68120713845,-3,-2,-2,0,4,4,-3,-1
68120713845,-1,-1,-1,0,-2,-2,4,-2
68120728786,-2,-3,-1,0,-3,-3,-2,0
68120728786,-2,1,-1,-2,-2,0,2,-1
68120736364,0,-1,1,-2,-1,-3,-7,-1
68120736364,-1,-1,-2,0,-2,0,6,2
68120745183,1,-2,-2,-3,0,0,-8,-1
68120745183,0,-2,0,1,-1,-2,0,2
68120758925,-2,-1,-1,0,0,-1,0,-1
68120758925,2,0,0,-2,2,0,-2,0
68120767715,-2,4,-2,0,-2,-2,-8,-5
68120767715,-1,-10,-1,-1,-2,-1,6,-1
68120773826,-2,1,0,-1,-1,0,-3,-3
68120773826,-1,-2,-2,1,0,0,6,0
68120788811,-1,-1,0,1,0,-3,-3,-2
68120788811,1,4,-1,0,1,2,-1,-2
68120796377,0,0,-1,-3,-3,-4,1,0
68120796377,-3,-2,-3,-4,-3,-2,-5,-3
68120805154,0,-1,-2,-2,-2,1,1,-1
68120805154,0,4,2,4,2,2,1,0
68120818749,0,-3,-1,-1,0,-1,0,-2
68120818749,0,2,-3,-4,-3,-2,-4,-2
68120827706,-1,-2,0,-2,0,-1,1,1
68120827706,-2,1,-2,-2,-1,-1,-1,2
68120842454,-2,-2,-3,1,0,-1,-7,-3
68120842454,1,0,2,2,-1,-1,-3,1
68120850198,-2,-3,-2,-1,0,0,-3,0
68120850198,0,2,-1,-1,-1,1,-6,-1
68120856350,-1,-1,-1,-1,-1,-1,6,0
68120856350,-1,3,1,2,0,-3,-9,-1
68120865222,-1,-7,-2,-2,-4,1,0,-1
68120865222,-4,-2,0,-1,-4,-2,-3,1
68120878880,2,-2,-2,-2,-1,0,0,-3
68120878880,-2,-3,0,0,-2,-2,-3,1
68120887753,5,5,-1,-2,4,0,1,0
68120887753,0,0,-1,-4,-3,-6,-2,-1
68120901814,-4,-10,1,2,0,-2,-1,-5
68120901814,-2,1,-2,-1,0,-1,-2,-2
68120908836,1,0,-1,0,-2,-1,1,1
68120908836,-2,0,-2,1,0,-3,-6,-4
68120916358,0,2,2,-1,-2,2,12,5
68120916358,-4,-1,-4,-4,-1,-1,0,-5
68120925166,6,-2,0,-1,-3,-2,-5,3
68120925166,3,-1,1,0,1,0,4,0
68120938731,-1,2,-2,-2,-3,-3,-5,1
68120938731,3,-2,0,0,-3,-2,-3,-2
68120947663,-14,-5,1,-2,-2,-2,0,-3
68120947663,1,1,0,6,6,4,1,0
68120961864,-1,0,0,2,2,2,-2,2
68120961864,-2,-2,-2,-1,-3,-2,0,-1
68120968705,0,-1,-1,-1,-3,-4,-3,-4
68120968705,-1,-1,-1,-6,-6,-6,-4,-3
68120976315,-4,-3,-1,-1,-2,0,4,-2
68120976315,2,1,-1,0,1,-1,-6,1
68120985215,-2,-2,9,5,3,1,4,-1
68120985215,-1,-3,-2,-1,-4,-3,-8,-2
68120998892,3,3,0,2,2,2,4,2
68120998892,0,0,9,4,0,2,8,0
68121007636,-9,2,-8,-9,-4,-2,-1,-1
68121007636,9,2,-2,2,1,5,6,6
68121021846,1,-6,-2,-4,-4,-4,-7,-1
68121021846,2,-1,-15,-5,-1,0,2,5
68121028862,-5,-1,5,6,1,1,-2,-4
68121028862,-8,6,3,-3,-3,-2,-10,-4
68121036332,-9,1,5,3,-2,-1,5,-4
68121036332,-1,-1,-2,-1,1,-1,-2,8
68121045148,6,-7,-10,-6,-4,-1,-2,0
68121045148,1,-1,-11,-5,-2,0,6,-3
68121058863,-3,2,34,26,3,-2,-4,2
68121058863,2,2,-6,-1,1,0,-1,-8
68121067641,7,-1,-10,-5,2,-1,-1,5
68121067641,-6,-3,12,15,-4,-2,0,-3
68121081850,5,-2,-9,-21,-1,-1,0,-8
68121081850,-2,2,-1,7,-1,0,-2,-2
68121088745,-2,0,-13,-10,-3,-6,-6,0
68121088745,3,-3,-5,-15,-4,-2,-2,1
68121096323,-2,5,-17,-1,-2,-3,-5,-1
68121096323,-5,-2,-6,-4,2,-1,-2,-16
68121105169,-1,2,-1,-2,-2,1,2,-1
68121105169,-4,-6,4,0,1,-1,1,-4
68121118862,-2,0,-1,-2,-3,-3,-5,8
68121118862,13,-2,1,-5,-4,-3,-3,2
68121127726,-3,-2,0,0,2,2,0,-6
68121127726,-2,0,4,9,2,-3,0,-1
68121141987,0,-3,-6,-3,-4,-1,-1,-4
68121141987,-3,-3,-6,-17,-3,0,-1,2
68121148756,-6,1,5,-1,0,-1,1,3
68121148756,3,-1,-5,-1,-3,-3,-5,-12
68121156304,9,1,-15,-7,0,-1,-2,1
68121156304,-8,-1,9,4,0,-2,-2,-2
68121171264,3,-3,-18,-9,0,0,1,1
68121171264,-5,-6,6,-1,-2,-4,-3,4
68121178836,-5,0,-4,-5,-2,-2,-4,-5
68121178836,1,2,1,3,0,0,1,4
68121187628,-1,6,19,9,-2,-2,-3,-8
68121187628,-3,-3,-22,-12,-3,-2,-1,5
68121201789,2,2,6,2,6,4,0,0
68121201789,-3,-3,-1,1,-2,1,1,3
68121208867,1,1,3,6,4,1,1,0
68121208867,2,4,-5,-1,1,-1,-8,-1
68121216139,-1,-7,3,-2,-3,-4,-4,-7
68121216139,6,1,-5,-3,-2,0,-2,4
68121231245,-6,-3,3,7,2,-4,-1,-1
68121231245,0,-2,2,0,2,0,-2,3
68121238791,-12,-3,-8,-9,-5,-1,1,5
68121238791,8,-6,12,22,0,-3,-3,-1
68121247673,-4,2,4,0,-1,-1,-3,-7
68121247673,-2,-2,-2,-4,0,-2,2,-1
68121262101,0,-4,-10,-5,-1,-4,-1,-3
68121262101,-14,-7,8,2,-2,-4,1,8
68121268788,1,-3,-8,-6,-2,1,-4,-6
68121268788,6,2,17,10,-3,-1,3,0
68121276369,-13,-5,5,2,0,-2,0,-2
68121276369,1,1,-16,-4,-1,-1,-3,-6
68121291339,2,0,2,-1,-3,-3,0,2
68121291339,-3,0,-9,-4,-2,2,0,-2
68121298892,2,0,5,1,-4,-1,0,-3
68121298892,-4,-2,-1,-5,-1,-2,-2,-4
68121307683,-6,2,-4,3,0,2,-3,1
68121307683,14,2,-9,-10,1,0,1,3
68121322118,1,2,8,13,-1,1,-2,0
68121322118,-2,-4,-2,-8,-2,-2,-1,-3
68121328881,2,-4,1,0,1,0,2,3
68121328881,-6,0,-3,-5,2,0,-5,-2
68121336171,2,2,-3,-3,4,3,11,2
68121336171,3,0,3,5,-3,-3,-4,-3
68121359502,-3,0,-3,0,0,0,-1,-3
68121359502,-5,-5,1,6,1,2,0,-3
68121360120,4,1,-1,0,-3,-1,-3,0
68121360120,-4,-1,-8,-8,7,0,-1,0
68121375241,3,0,-1,1,-6,-3,1,0
68121375241,-6,-1,1,-14,-8,-5,-3,-5
68121382008,2,0,0,7,-6,-1,-4,0
68121382008,-4,0,3,7,10,2,2,-1
68121396892,2,0,-4,-4,-5,-1,0,0
68121396892,0,0,-1,2,3,-1,2,1
68121397697,-7,-3,-4,-5,-7,0,-4,-7
68121397697,18,4,-2,-8,-6,-3,-1,3
68121419447,1,-5,-2,-9,2,-2,-2,2
68121419447,-1,2,14,20,-2,1,2,0
68121420156,0,-5,3,-1,4,-2,-1,0
68121420156,0,1,1,-5,-1,2,-1,1
68121427700,-1,0,4,4,2,-2,-2,-4
68121427700,-1,-2,-7,-12,-7,-4,0,-2
68121442023,0,-3,-5,8,6,1,-2,4
68121442023,-2,5,4,-2,0,3,1,-5
68121448834,-1,-9,2,-3,-17,-8,-4,-1
68121448834,-2,1,-2,17,42,13,4,0
68121456374,2,3,-3,0,-10,-3,-4,-1
68121456374,-7,-6,-11,-11,-9,0,5,-3
68121471284,1,1,-2,9,14,3,1,1
68121471284,-2,-2,10,4,-13,-5,-1,-2
68121478873,2,0,-9,-10,-3,-3,-2,-2
68121478873,-5,-3,-3,-10,-17,-9,-7,-3
68121487695,-1,-5,1,14,3,4,2,0
68121487695,-3,5,8,-9,-6,-5,-4,-3
68121501251,0,3,4,-6,-4,-3,-1,-1
68121501251,-7,-9,4,10,-1,-1,-4,-4
68121510135,-3,-2,-5,-11,-6,-4,0,-1
68121510135,0,-2,-4,-1,-3,2,0,-1
68121524476,0,0,4,1,3,2,0,-1
68121524476,-1,0,2,2,2,0,-3,-2
68121531219,0,-2,-4,-8,0,0,0,-1
68121531219,-6,1,-7,-6,-11,-5,-2,0
68121547755,6,0,-5,-7,-4,-6,-3,3
68121547755,-5,-2,-1,6,6,0,-2,-3
68121549121,3,3,3,0,3,7,4,4
68121549121,-4,-4,-10,-5,-5,-4,0,-1
68121569957,-3,0,-4,5,3,0,2,-1
68121569957,-2,0,5,-3,-5,-7,-4,-2
68121571751,0,3,7,-3,-4,-3,-2,-2
68121571751,1,-3,-4,-7,-1,0,1,-1
68121584366,-1,-3,-5,-1,5,1,0,0
68121584366,-1,0,-4,-6,-6,-4,-1,0
68121591407,-3,0,1,3,-2,-3,-3,-2
68121591407,-1,-3,1,1,2,2,0,0
68121607735,0,-1,-14,-9,-6,-3,-3,-3
68121607735,-4,-2,3,1,1,0,1,-2
68121609160,-1,-2,-4,-3,0,-2,-2,-2
68121609160,2,-2,-3,-2,-2,-2,0,0
68121621370,-4,0,6,-1,1,0,-1,-1
68121621370,1,0,-4,-2,3,1,0,1
68121630227,-1,0,-4,-2,-7,-2,-2,-2
68121630227,-2,-3,-2,2,5,0,-1,-3
68121644605,-4,-3,-1,-6,-1,-2,-2,-1
68121644605,2,1,0,6,3,2,1,0
68121651295,4,2,0,-5,-5,-3,-3,-1
68121651295,1,0,-1,-1,-6,-2,-3,-1
68121667791,-1,0,-1,0,3,1,0,0
68121667791,-2,-2,2,0,0,-2,-2,0
68121669132,-1,0,-1,-1,1,-2,-1,-1
68121669132,1,-1,-2,-3,1,1,1,0
68121681403,1,-1,1,0,0,-1,-1,0
68121681403,-5,0,-4,0,-2,0,0,-1
68121690229,1,0,-3,-2,2,-1,-1,-1
68121690229,-1,-3,-2,-4,-3,-4,-3,-1
68121704487,0,0,-1,0,-3,-2,0,1
68121704487,-1,-4,-5,-7,-1,-1,0,-2
68121711244,-2,0,5,5,4,0,1,0
68121711244,-2,-2,-11,-5,-5,-1,-2,-1
68121727672,-1,-1,1,-1,-3,-2,-1,-2
68121727672,-1,-2,-1,-1,-3,0,-2,-1
68121729174,-2,-2,-1,-2,1,1,-1,1
68121729174,0,1,0,1,-4,-1,-3,-2
68121741303,0,-1,-2,2,0,-1,1,-2
68121741303,2,0,-4,-2,2,2,0,1
68121750159,-1,-3,-1,-2,-3,-3,-2,-2
68121750159,1,0,1,2,-2,-2,0,1
68121764385,-2,-3,-1,-4,-3,-1,-2,-2
68121764385,-3,0,2,1,-2,0,-2,-4
68121771315,-1,-3,-10,-3,0,1,-2,-1
68121771315,-2,-1,0,-1,0,-1,-1,-2
68121787829,-3,-1,0,-1,-2,0,-1,0
68121787829,0,0,1,-2,-2,-4,-1,1
68121789167,-2,0,-1,-3,-3,-2,-2,-1
68121789167,0,-1,5,13,8,-1,-1,0
68121801433,-1,-1,-2,0,-7,-2,-1,-1
68121801433,-1,-2,1,0,7,-1,-4,-2
68121810146,0,-1,-3,-5,-3,0,0,-1
68121810146,-1,0,-1,-3,-2,-2,-1,-1
68121824487,1,-1,1,0,1,-3,0,-1
68121824487,0,-1,-1,0,-4,-1,-1,-1
68121831409,0,-3,1,0,1,-1,-1,-1
68121831409,-2,-2,-11,-6,-1,-2,-1,0
68121847100,0,0,4,3,0,1,-1,0
68121847100,0,-1,-1,-5,-5,-4,0,-2
68121853924,-2,1,0,2,-1,0,-2,-1
68121853924,-1,-3,0,-2,-3,0,0,-2
68121861354,-2,0,-2,-5,1,1,0,-1
68121861354,-1,0,2,5,5,0,-2,-1
68121870133,-3,-2,0,-2,1,-2,-1,0
68121870133,0,-1,-4,5,-1,-1,-2,-2
68121884410,-2,-1,-2,1,0,-2,-1,-2
68121884410,-1,-3,-2,-3,-3,-2,0,-1
68121891403,-1,-2,-2,-2,-2,-2,-2,-2
68121891403,-3,0,1,-7,-4,-1,-2,0
68121907657,-1,-2,-3,2,4,2,1,0
68121907657,1,-1,0,-2,-1,-1,-1,1
68121909121,0,1,-4,-3,-5,-3,-2,0
68121909121,-2,-1,1,-1,-1,0,-1,-2
68121921362,0,-1,0,2,0,-2,-3,-1
68121921362,-1,-1,0,-2,-4,-1,0,0
68121930234,0,-1,5,1,1,-2,-1,0
68121930234,1,0,-5,-5,-1,-3,0,-1
68121945647,0,-1,-2,-5,-1,-2,-1,-2
68121945647,-2,-2,-1,4,-1,-1,-2,-2
68121952710,-1,-1,-4,1,-1,1,1,0
68121952710,-1,-1,3,1,4,5,1,0
68121967789,0,0,-2,-2,-3,-1,-3,-1
68121967789,0,0,-5,-3,-1,-1,0,-1
68121969161,-1,-1,-1,-2,-2,-2,-1,-2
68121969161,-2,-2,5,-1,-4,-2,-2,-3
68121981346,0,0,-4,-4,0,-2,-3,-2
68121981346,-4,-1,0,-3,-2,-2,-2,-2
68121990210,0,0,1,3,1,-2,-1,-1
68121990210,1,-1,-4,-2,-6,-2,-1,0
68122004469,-2,-2,1,0,4,1,-2,0
68122004469,-1,1,0,3,0,-1,-1,1
68122011129,-1,-2,-3,-5,0,1,-1,0
68122011129,-1,-1,3,3,0,-1,-2,0
68122027473,-1,0,5,4,-4,-1,0,-2
68122027473,0,-1,-3,-6,-3,-1,-1,1
68122029146,0,-1,1,1,-2,-1,-1,1
68122029146,-1,-2,2,-3,-3,-2,-2,-2
68122041810,-1,-1,-11,-8,0,-1,-1,0
68122041810,-1,-2,1,2,1,0,1,-1
68122050208,-1,-2,-4,-1,-2,-2,-3,-1
68122050208,-1,-2,1,0,0,0,1,0
68122064467,-1,-1,3,0,1,-1,-1,-2
68122064467,-1,-1,-1,0,-1,1,-1,-1
68122071310,0,-1,-3,-6,-3,-3,1,-2
68122071310,0,0,-1,-1,-7,-4,-1,-1
68122087087,-1,-1,0,3,9,1,0,0
68122087087,0,0,-3,-2,-2,-2,-1,1
68122093739,-1,-1,-1,-2,-2,-1,-1,-1
68122093739,-1,0,6,7,1,-1,-2,-1
68122109991,-3,-2,-5,-3,-5,-2,2,0
68122109991,0,-2,0,0,-1,0,-1,1
68122111627,-1,0,0,-1,1,2,1,-2
68122111627,-2,0,-3,-5,-1,-2,-1,-1
68122124536,1,-3,0,2,-2,0,-1,-1
68122124536,0,-1,-3,-1,0,-1,-2,-1
68122131168,-1,-3,-4,-4,-2,-1,-1,-1
68122131168,-2,0,3,-1,1,2,2,-1
68122146978,-2,-2,1,-3,-3,-1,-2,0
68122146978,0,1,-3,0,1,2,3,-1
68122153789,-1,-1,4,2,-2,-4,-2,-2
68122153789,-1,-3,-14,-6,4,-2,-3,-1
68122170111,1,-1,0,0,-7,-1,-1,-1
68122170111,-1,-2,-1,-2,0,0,-1,-1
68122171564,-1,0,1,1,1,-1,-2,-1
68122171564,0,-1,1,0,-4,-3,-1,-1
68122184596,0,0,-4,-5,-4,-2,-2,-2
68122184596,-2,-1,3,3,-3,-3,-3,-2
68122191321,0,-3,-4,-1,0,1,0,-2
68122191321,-1,1,-4,-7,-3,-3,-3,0
68122207533,-2,0,0,-2,0,2,0,-3
68122207533,0,-1,0,-3,-1,0,-2,-1
68122213862,-2,0,-4,-1,-1,-2,-2,-1
68122213862,0,-2,0,1,-1,0,1,-1
68122230226,-1,-1,1,-1,2,0,0,1
68122230226,-2,-2,1,2,1,-2,-1,0
68122231631,-1,-1,0,-1,-3,-2,-1,0
68122231631,-2,-2,-3,-2,-3,-2,-2,-2
68122244399,-1,0,3,2,-8,-3,-1,0
68122244399,-3,-1,-3,-1,4,2,0,-3
68122251234,-1,-3,-1,1,0,-1,-3,0
68122251234,-1,0,-2,-2,0,0,1,-1
68122267054,2,-2,0,-1,-3,-2,-2,-1
68122267054,-1,-2,1,-1,-2,-2,-1,-2
68122281309,-1,-1,-2,-2,0,-2,0,-1
68122281309,-1,-2,0,0,0,2,-1,1
68122290182,-1,-1,-2,0,-1,0,-1,-1
68122290182,1,-1,-2,-3,-3,-1,0,-1
68122291614,0,3,4,1,1,2,-1,0
68122291614,-2,-2,0,1,-3,-3,-1,-2
68122305359,-2,1,-7,-6,-1,-2,-2,-1
68122305359,-1,-2,-2,-2,-1,0,-1,-2
68122318869,2,2,-3,0,-2,-2,-1,0
68122318869,-3,-2,-2,-2,-2,-1,-1,-2
68122327051,-2,0,3,-1,1,0,1,0
68122327051,-3,-1,-5,-4,-2,-3,-2,-1
68122333753,1,-1,-4,-1,-2,-1,-1,1
68122333753,-1,-3,1,0,-4,-2,-2,-1
68122350235,-1,-2,-1,1,8,1,0,0
68122350235,0,-1,-2,1,0,1,-1,0
68122351574,-4,-3,2,2,-2,-1,0,-2
68122351574,1,0,1,0,-3,-2,-3,-2
68122364374,0,-1,-2,-1,0,-1,-2,-1
68122364374,-1,-1,-1,-2,-2,-2,-2,1
68122371330,-2,-1,-3,-3,-2,0,-1,-2
68122371330,1,-2,-4,-3,1,1,1,0
68122387023,0,-1,2,1,0,1,0,-2
68122387023,0,-2,-1,0,-2,-3,-1,-1
68122393789,0,0,-7,-8,-4,-3,0,0
68122393789,0,1,-1,-3,-2,-2,-3,-2
68122410172,-3,-1,-1,0,-3,-2,0,-3
68122410172,1,-1,4,1,3,4,1,-1
68122411612,-1,-2,1,0,-3,-1,-2,-2
68122411612,0,0,-4,-4,0,1,1,-1
68122424563,-1,0,0,7,-1,-1,0,-1
68122424563,-1,-1,3,1,-4,-6,-2,-4
68122431423,-3,-3,-10,-7,-1,-1,0,-1
68122431423,-1,-1,0,1,3,-1,0,-1
68122446297,-1,-2,0,0,0,-1,1,0
68122446297,-3,0,-3,-4,-4,-2,-1,0
68122453671,-1,-2,4,1,-1,0,-2,-2
68122453671,-1,-1,1,0,0,0,-1,-1
68122469529,-1,-2,-4,-3,-1,-3,-3,-2
68122469529,-1,-1,-4,-2,-3,0,-1,0
68122470161,-2,1,1,0,-1,0,-1,1
68122470161,-2,-1,-2,1,-1,-1,0,0
68122485193,1,-3,-1,-4,-6,-4,-2,-2
68122485193,-1,1,-1,-3,-1,-3,0,0
68122491306,-1,0,3,0,0,0,0,-1
68122491306,-1,-4,-1,0,3,2,0,0
68122506227,1,-1,0,-2,-4,-2,-1,0
68122506227,0,-2,-5,-5,-2,-1,-2,0
68122513873,-3,0,11,10,2,0,-1,-2
68122513873,0,1,-2,-1,-4,-1,0,-1
68122529513,0,0,-5,-4,1,0,1,0
68122529513,0,-1,-2,-3,-8,-4,-2,0
68122530154,1,1,-4,-3,5,-1,-3,-1
68122530154,-2,0,1,-3,0,-1,-2,1
68122545160,-2,-1,-2,2,0,0,-3,0
68122545160,0,-1,3,3,1,1,0,1
68122551237,-1,-3,-3,1,-1,-1,-1,-2
68122551237,0,-2,1,-1,-2,-2,0,-2
68122566341,-2,-1,0,-2,-3,-1,-2,-2
68122566341,-3,-1,-2,3,4,-1,0,-2
68122573850,-1,-2,-1,0,-2,-2,-4,0
68122573850,0,1,-5,-3,-2,-2,-1,0
68122589330,-2,0,1,1,-1,-1,-2,1
68122589330,0,1,-1,0,-1,0,0,-2
68122590204,0,0,-2,-3,-2,-1,-1,-1
68122590204,-1,-1,1,0,-1,-2,0,-2
68122613315,0,0,0,-2,-1,-3,-1,-2
68122613315,-3,-2,-9,-1,0,-3,-1,-2
68122614129,0,-1,1,1,1,-2,0,-1
68122614129,0,-1,-3,-1,-3,0,0,-1
68122627750,-1,-3,1,2,5,0,-4,0
68122627750,-2,-3,1,-1,-4,-2,-2,-3
68122633848,-2,-2,-2,-4,-2,-1,-1,-2
68122633848,-1,-1,0,0,0,-1,-1,0
