timestamp,emg1,emg2,emg3,emg4,emg5,emg6,emg7,emg8
51412638226,-4,-2,-3,-6,-4,-1,-5,-1
51412638226,3,1,5,8,7,2,4,-4
51412645774,-1,-1,2,-1,3,-3,1,4
51412645774,5,2,1,1,-1,-1,-8,1
51412653501,-1,1,5,6,8,5,14,0
51412653501,-3,-3,-4,-5,-5,-1,0,-2
51412660867,5,0,-2,-3,0,4,1,-3
51412660867,0,-2,-4,-5,-5,-8,-8,-3
51412677263,1,0,-2,-3,-8,-7,-5,1
51412677263,0,-1,-1,-3,-1,0,-2,-3
51412683528,4,4,3,8,2,0,3,5
51412683528,0,-1,-2,-9,9,-3,-2,-4
51412700900,0,-4,-5,2,6,3,-5,-5
51412700900,0,-2,-1,15,-12,1,5,4
51412701588,-5,-5,-6,-18,-15,-9,-11,-7
51412701588,-7,-1,-2,-6,12,3,3,-1
51412703195,-3,-1,3,3,-21,-8,1,0
51412703195,1,3,0,-1,3,2,-2,3
51412706763,-7,-3,-7,-5,2,1,1,0
51412706763,-3,-5,-2,7,-8,-12,-16,-9
51412707542,8,1,-4,-5,4,12,7,2
51412707542,-23,-4,-3,0,6,7,16,-4
51412713418,-15,0,-2,-1,-3,-7,2,0
51412713418,-5,-4,-5,-1,-2,-7,-17,-7
51412729791,-1,-1,0,-4,20,-1,3,-5
51412729791,3,-1,1,-6,-16,-6,-4,0
51412735905,0,-5,-6,-2,2,-7,-7,-2
51412735905,-4,5,9,9,-2,2,10,10
51412759577,-6,-2,-1,23,-2,1,-6,-5
51412759577,3,-1,-10,-44,5,-5,-7,-3
51412765918,2,5,8,12,-2,9,1,0
51412765918,0,-5,-3,8,2,-2,4,1
51412783289,-1,-2,-5,-20,-31,-12,2,-3
51412783289,2,0,-1,7,4,2,-5,1
51412786984,9,1,-1,-1,10,5,4,1
51412786984,-5,1,6,7,13,5,9,-2
51412788366,4,1,1,4,-1,-7,-8,2
51412788366,1,-2,-5,2,16,-2,-9,-3
51412803214,-3,0,2,-10,-10,-8,-2,-2
51412803214,16,3,-2,2,-2,7,3,6
51412833252,3,3,6,8,-18,3,-3,-4
51412833252,-10,-7,-13,-29,-10,-2,6,-6
51412840634,-2,0,-2,-6,-6,-3,-5,-3
51412840634,4,2,3,-1,9,6,6,3
51412855624,17,-1,-5,8,7,-8,2,3
51412855624,-19,-7,-1,0,0,-1,-11,-7
51412863136,-3,-1,-2,1,-3,-2,2,-4
51412863136,-4,-1,1,4,10,1,-4,-3
51412880133,4,2,-8,-40,-37,-9,-8,6
51412880133,1,3,9,17,7,-5,15,1
51412881755,2,-3,-3,-2,-4,-4,-7,-1
51412881755,-3,-3,1,5,4,4,-2,0
51412882950,-4,-4,-5,0,14,6,5,-2
51412882950,8,-1,-8,-9,-2,0,-5,0
51412893159,-13,-3,5,11,-11,-5,-6,-3
51412893159,2,1,4,11,7,2,12,1
51412900673,-7,-3,0,0,1,1,-5,-3
51412900673,4,0,0,5,-4,-1,-3,0
51412915699,2,0,-2,0,2,-1,-1,-1
51412915699,-1,0,-7,-9,-11,-4,-8,-2
51412923150,-7,-4,-1,1,-3,-4,1,-5
51412923150,6,5,3,7,7,6,2,4
51412938228,2,0,-3,-6,-1,-2,2,-2
51412938228,-4,-6,-9,-9,-10,-12,-7,-7
51412945661,-4,0,6,7,5,-8,0,-1
51412945661,11,1,1,-2,-1,-4,4,4
51412956924,1,-2,4,9,9,11,-1,0
51412956924,-3,1,-4,-5,-4,-1,-1,2
51412957456,-7,-5,-11,-16,8,7,-5,-7
51412957456,2,-1,-1,-13,-22,6,1,1
51412960667,0,-2,-6,-18,0,2,0,3
51412960667,9,0,3,8,7,-2,-1,5
51412968201,-4,-1,-1,7,-2,6,3,-3
51412968201,1,1,-3,-4,1,-3,3,5
51412983111,1,0,0,6,7,-3,-20,-11
51412983111,-1,0,0,-13,-6,-5,6,1
51412990666,-6,2,-4,-10,-2,-5,1,0
51412990666,-4,-2,6,23,15,1,-3,0
51413005709,6,2,-1,0,11,7,-2,9
51413005709,-17,-5,-1,8,-16,-21,10,-11
51413013188,2,1,-1,-14,-2,2,-2,1
51413013188,-5,0,-5,0,5,3,-5,-1
51413035668,0,1,1,-1,-3,3,14,1
51413035668,5,1,2,1,-9,-6,-24,-5
51413045155,0,2,6,12,10,4,7,1
51413045155,-3,-3,-3,4,-4,-5,-1,-5
51413046745,-8,-4,-1,2,3,-5,-9,-1
51413046745,9,6,2,2,-6,12,3,5
51413047555,-4,-1,1,5,-5,-9,-4,-5
51413047555,-3,-2,-2,-4,-1,-4,-16,-2
51413058179,9,-2,-2,-1,-3,2,6,1
51413058179,-4,-4,-6,-8,3,13,13,1
51413065719,6,5,7,9,3,4,2,1
51413065719,4,7,-2,-14,-8,-6,-7,-2
51413080894,-13,-10,-2,11,-2,-5,6,7
51413080894,5,-3,-6,-8,-5,1,-14,-9
51413089376,-16,-7,-2,1,3,-7,-9,-4
51413089376,-3,-2,-3,-8,-1,-3,2,-5
51413103128,3,5,-1,-7,-8,-9,0,1
51413103128,1,-1,1,20,0,9,-1,3
51413110745,1,-1,-10,-26,-15,-4,0,1
51413110745,2,0,3,1,10,0,-4,-1
51413126310,-10,-4,-2,-7,-1,-1,2,-4
51413126310,2,-6,-11,-15,2,-4,-3,-5
51413127095,1,-3,-3,7,20,5,0,0
51413127095,-4,-3,1,19,-14,-3,4,2
51413134667,17,5,-4,-25,-8,-5,-3,3
51413134667,-20,-6,6,11,18,0,-5,-6
51413148199,2,-2,4,5,-8,-6,3,1
51413148199,-3,-7,-8,-27,-12,-5,-9,-2
51413163121,3,3,6,21,10,7,5,-1
51413163121,-1,1,1,-5,-4,-1,1,3
51413170674,-2,-3,-4,1,-9,-3,-4,0
51413170674,2,-6,-4,1,-3,-4,-2,-3
51413185641,-11,1,-3,-2,-4,-4,0,-3
51413185641,-3,-1,1,-5,5,5,4,4
51413193163,5,-3,-9,0,-3,-20,-56,-6
51413193163,2,3,8,13,2,27,52,0
51413208559,9,3,-6,-9,9,1,-2,0
51413208559,-3,-1,-4,-3,-17,1,4,-1
51413217052,4,0,0,-1,-3,3,-5,3
51413217052,0,0,2,-3,-7,-11,-17,-2
51413218671,-6,-1,-2,8,4,3,2,-3
51413218671,-2,-1,0,-14,-6,-6,-1,-3
51413223155,1,-3,1,14,5,6,13,1
51413223155,-4,-1,-1,-4,-3,-6,-8,-1
51413238152,-1,-4,-3,-1,-5,0,0,-3
51413238152,3,0,-2,5,1,-6,-10,1
51413245647,-3,-3,-2,-8,0,-7,3,-1
51413245647,0,2,0,-2,11,4,5,1
51413268127,-2,-2,-1,0,-24,3,-6,-2
51413268127,3,-4,-2,-9,9,2,1,0
51413275616,-8,-3,-2,0,-9,3,10,-4
51413275616,3,1,1,7,10,-5,-11,0
51413290654,-7,-7,-3,-3,2,4,0,-4
51413290654,1,3,-3,-4,-21,-11,-2,-1
51413299536,-4,-1,6,9,8,7,6,-4
51413299536,6,-2,-6,-3,-6,-6,-9,-1
51413301159,0,0,2,-2,-5,-5,-3,2
51413301159,-13,-1,4,9,4,5,5,-4
51413313131,0,2,-1,-13,-10,-1,5,-1
51413313131,1,0,-5,-11,2,-3,-5,0
51413328158,1,-2,6,21,5,-1,1,-2
51413328158,-19,-5,-4,-9,-1,-5,-15,-1
51413335664,3,3,3,3,8,7,6,1
51413335664,-3,-1,2,1,3,3,-3,-3
51413350644,3,-3,-8,-13,-3,-3,4,1
51413350644,8,0,-1,7,12,-9,-11,0
51413365605,-1,2,2,3,-13,2,-1,0
51413365605,-5,-4,-6,-8,-11,-2,-4,-1
51413380693,-1,2,4,4,11,-1,-7,0
51413380693,5,1,-5,-4,-10,-3,5,0
51413388556,-1,-4,-5,-5,-1,-5,-3,-1
51413388556,-7,0,2,6,11,4,3,-2
51413398494,-3,0,-4,-4,-7,-5,2,-3
51413398494,4,-1,2,-3,5,0,-4,-2
51413399287,3,-1,1,0,0,3,6,3
51413399287,-4,-5,-8,-12,3,-2,-8,-2
51413403106,-1,-1,-3,7,-17,-7,-2,-3
51413403106,4,1,3,6,-4,-1,5,0
51413418176,3,1,-1,3,7,-2,-4,0
51413418176,-3,0,7,12,14,3,-3,-3
51413433134,2,-1,-3,-14,2,0,7,7
51413433134,5,-3,-1,2,-9,-3,-7,-4
51413440680,1,-1,-2,1,-1,-3,-5,-1
51413440680,-3,-2,-3,-5,8,1,1,-3
51413455575,-2,-1,0,-5,2,0,-2,2
51413455575,2,1,2,3,7,2,6,1
51413463123,2,-1,-3,-5,-10,-5,-2,0
51413463123,0,-1,0,-1,-8,-6,-3,1
51413473490,-3,-1,1,3,0,1,-2,-4
51413473490,4,0,-2,-6,-8,-3,-5,0
51413474322,0,-3,-2,-6,1,2,3,-3
51413474322,-5,-2,-2,2,-9,0,5,0
51413485698,2,2,2,-4,-7,-8,-8,-3
51413485698,-5,0,-1,2,6,0,3,-2
51413493166,-1,-1,1,13,5,5,4,3
51413493166,-2,-1,-4,-15,7,1,-5,-1
51413508102,1,-2,-5,-11,-25,-7,-1,-3
51413508102,-1,-1,-3,-5,6,6,7,2
51413523087,-3,0,-3,-1,15,-6,-1,-1
51413523087,0,1,7,10,-18,-3,-1,-2
51413545598,0,1,0,-2,17,2,1,-2
51413545598,0,-2,0,2,-3,-3,-4,-1
51413553153,-3,-2,2,1,-10,0,-2,0
51413553153,0,1,2,2,-4,-1,-4,-1
51413565416,2,-2,-1,2,7,0,2,1
51413565416,-1,-1,-3,-2,0,-5,-5,1
51413565446,-3,-2,-4,-10,1,5,1,-3
51413565446,-2,-1,-1,-7,-38,-7,-2,-3
51413568766,-1,-1,-3,-3,17,1,-2,-3
51413568766,-2,0,6,19,2,2,-1,0
51413569567,3,0,0,1,3,-7,-4,1
51413569567,-9,-2,-2,0,0,2,3,-4
51413583131,8,-1,-2,-5,-1,2,0,3
51413583131,-13,-1,-2,-8,7,2,-7,-9
51413590646,-3,-1,1,3,-10,-2,-3,-3
51413590646,3,-5,-6,-1,2,-2,-8,-1
51413613324,-5,1,1,1,-12,-11,-5,-4
51413613324,4,0,-2,-4,6,3,4,1
51413628125,1,-2,-1,-1,-3,1,1,0
51413628125,-2,-1,1,3,5,1,-5,-4
51413645176,-1,-3,0,1,2,3,2,3
51413645176,6,3,5,6,-7,-1,3,5
51413645926,-4,-1,-3,-13,-6,-6,-3,-3
51413645926,4,-2,-4,-3,5,-1,3,2
51413647518,-1,-1,2,14,15,9,-1,-3
51413647518,-4,-4,-5,-9,-12,-4,-4,-5
51413651356,1,1,1,7,6,4,10,1
51413651356,-1,-1,-3,-1,4,-4,-3,2
51413658079,1,0,-2,-8,-3,-1,-2,-2
51413658079,-2,-2,-2,4,14,4,-2,0
51413665647,4,1,-2,-9,-22,-6,-3,2
51413665647,-4,-1,0,-1,14,2,2,-2
51413680618,1,-2,-1,0,-11,-5,-3,1
51413680618,2,-1,-1,1,-12,-6,0,-2
51413688095,4,-3,-2,-4,4,0,0,2
51413688095,-5,-2,1,0,-5,-2,9,2
51413703109,-7,-1,-1,-3,-4,-2,-15,-4
51413703109,5,2,0,-3,-6,-6,6,8
51413710611,-10,-2,-3,0,11,3,-4,-2
51413710611,3,5,4,1,-3,4,4,-5
51413736182,-5,-3,-3,4,9,-6,6,-3
51413736182,5,-1,-6,-7,-1,1,-4,0
51413737145,-7,-2,4,9,3,-4,-9,-7
51413737145,5,0,1,5,5,2,7,7
51413740654,-2,0,-2,-5,-3,-1,-3,-2
51413740654,1,0,-2,-7,-2,-2,-2,-3
51413748198,-7,0,-1,2,-2,2,1,-3
51413748198,5,-2,-5,-1,7,-3,-14,-2
51413763134,-3,-1,3,-1,-38,-6,2,-4
51413763134,-3,-3,-3,1,7,4,1,-1
51413770803,-2,-1,-1,-9,-15,-6,-6,-2
51413770803,3,-1,-2,0,6,-1,2,5
51413785694,4,-1,-2,-5,-9,1,-1,-2
51413785694,-4,-3,-1,-5,0,0,5,0
51413793136,-1,-1,0,1,-2,-3,-1,-2
51413793136,-3,-2,-5,-7,-5,-1,0,-3
51413808097,0,0,0,3,7,1,1,2
51413808097,-10,-4,-3,-2,-11,-2,-4,-8
51413816342,5,0,-5,-7,1,-3,-1,0
51413816342,-3,0,-1,-2,-6,-4,-5,-1
51413823188,-1,0,5,12,8,7,1,-3
51413823188,1,0,0,-1,1,-9,1,1
51413830630,1,0,-1,-2,12,1,-3,1
51413830630,-6,-1,-2,-8,7,5,2,-2
51413845634,-3,-2,-4,-6,-2,-5,-3,-1
51413845634,0,-1,1,1,-4,6,1,-2
51413853132,5,0,2,0,3,-6,-1,1
51413853132,0,-3,-4,-1,-20,-7,-2,0
51413868125,2,-1,-2,-1,8,0,0,1
51413868125,-9,-4,-4,-5,5,-2,-5,-4
51413875612,-3,0,1,3,-1,2,3,-1
51413875612,-1,-1,-1,0,-8,-1,-2,0
51413890642,-2,-1,-3,-7,-1,-2,-1,-2
51413890642,-6,-2,-3,-2,-5,-1,0,-4
51413907649,-2,-1,0,1,2,7,5,8
51413907649,9,-1,-1,1,-1,-7,-15,-8
51413909256,-3,-1,-1,-2,9,1,-1,1
51413909256,2,1,0,-4,-7,-1,1,-3
51413910049,0,1,0,3,18,9,3,-1
51413910049,3,0,2,0,-22,-5,-2,3
51413920569,-3,-3,-1,-3,16,-1,0,-2
51413920569,2,0,-3,-10,-19,-2,-5,0
51413928106,1,-3,2,7,0,2,1,0
51413928106,3,2,0,0,12,3,0,3
51413943112,-10,-4,-4,-4,-7,-1,4,-5
51413943112,-3,-1,1,1,3,-4,-1,3
51413950669,-6,-2,-4,-5,-7,-5,-3,-4
51413950669,-7,-3,-2,0,3,5,0,-1
51413965607,1,-3,-4,-2,-4,-2,-2,1
51413965607,4,0,-3,0,3,0,2,0
51413973174,-3,-2,-4,-3,-2,1,-4,-3
51413973174,-2,-2,-1,-3,5,-4,0,-2
51413989739,1,0,1,1,5,3,1,0
51413989739,1,-1,1,3,-9,-4,-2,-2
51413990302,1,-3,-3,-7,-2,-3,1,-1
51413990302,4,2,0,2,3,0,-1,2
51414003350,-11,-2,-1,0,3,1,-3,-3
51414003350,1,-2,-2,-2,-19,-4,-3,0
51414010773,-5,-1,-2,0,-2,0,2,-1
51414010773,-4,-1,2,3,-5,-4,-3,-4
51414025786,1,2,0,-2,6,7,-4,-3
51414025786,-2,-2,-3,2,8,-7,13,0
51414033326,-4,-4,-1,-5,-5,-7,-2,-4
51414033326,3,1,0,-4,-15,-7,2,-2
51414055823,0,-2,-2,2,-1,-5,-2,1
51414055823,-9,-1,-3,-10,-2,5,-5,-3
51414063343,3,-1,2,8,10,3,0,0
51414063343,-2,-1,-2,-2,-4,-1,-3,-8
51414079546,3,0,-1,-3,-6,-3,-3,0
51414079546,0,0,-1,2,15,3,-1,0
51414080272,-2,1,1,-1,-24,-6,-1,-1
51414080272,-3,-2,-1,1,7,5,1,1
51414086437,-4,-2,0,2,4,-2,1,0
51414086437,2,1,0,-2,1,-1,-2,0
51414087057,6,1,-3,1,8,4,1,1
51414087057,-5,-5,1,-1,-10,-3,-1,-3
51414100815,3,2,1,-6,-8,-3,0,0
51414100815,-1,-2,-1,3,4,0,-2,-1
51414108256,-2,-3,-3,-7,-3,2,-1,-1
51414108256,-3,0,0,9,9,-2,1,0
51414123263,-1,-1,-2,-3,-13,-7,-3,-2
51414123263,-1,-1,2,2,2,3,-2,-4
51414130758,0,-2,-3,-2,-7,-4,-4,-2
51414130758,-1,-4,-4,-9,2,2,1,1
51414145897,3,-3,2,1,-3,6,1,2
51414145897,-3,-2,-1,0,4,0,-4,-3
51414162167,-2,-2,-5,-1,0,0,4,0
51414162167,4,2,-1,-2,1,-1,-1,0
51414163561,-11,-5,-5,-1,2,-3,1,-4
51414163561,1,3,1,-3,-23,-3,-2,-1
51414169119,-8,-4,-3,-1,3,-3,-7,-6
51414169119,-1,1,5,3,4,-2,-1,1
51414183138,1,-2,-5,-4,-4,-1,4,0
51414183138,2,-1,-2,5,8,2,-8,-1
51414190647,1,3,5,3,1,-4,-3,-2
51414190647,-3,-2,-4,-1,-4,1,3,1
51414205812,0,-3,-5,-14,-3,-4,-5,-2
51414205812,4,2,7,10,1,-2,5,2
51414213251,0,-1,-2,-1,1,-2,-1,-1
51414213251,1,-1,-5,-3,-1,1,-2,-1
51414228145,1,3,2,2,-3,0,-3,-2
51414228145,2,0,-2,-5,0,1,1,1
51414235764,2,-2,-1,1,1,-3,-1,0
51414235764,-6,0,-2,-3,-1,2,2,-2
51414253525,-2,-2,1,5,3,-3,-2,0
51414253525,0,-2,-5,-6,-4,3,-2,-2
51414254311,-1,-3,-1,0,-2,0,-1,0
51414254311,-1,-3,-4,-5,-4,-4,-2,-1
51414265805,1,-2,-2,2,-2,0,-1,-2
51414265805,1,-2,0,-4,1,-4,-5,-1
51414273126,-2,-3,-2,-5,2,0,1,-1
51414273126,-4,-3,-1,3,-6,-2,3,0
51414288289,1,1,1,2,0,0,-7,-2
51414288289,-3,-3,-2,3,13,-1,3,-2
51414296026,3,1,-5,-11,-8,-1,1,1
51414296026,1,0,-2,0,-2,-3,-2,0
51414310745,2,-1,2,4,0,3,0,0
51414310745,2,2,-3,-7,2,0,5,2
51414318861,1,4,4,3,5,-5,-8,-1
51414318861,-3,-1,2,3,5,-2,-6,-2
51414334550,-1,-3,-4,-3,-5,-2,2,1
51414334550,3,-2,2,0,-1,0,-1,1
51414335315,-5,-4,-2,-1,-4,-3,2,-2
51414335315,1,0,0,1,2,2,-5,-2
51414340846,0,0,1,-1,-15,2,-2,-1
51414340846,-5,-1,-4,0,0,-2,-2,0
51414348252,0,-1,0,4,3,0,4,3
51414348252,0,-1,-3,-8,-23,-11,-12,-4
51414370787,-2,-2,-1,-2,2,-5,-3,-4
51414370787,-2,-2,-1,2,0,2,-2,-2
51414378286,-1,0,2,2,-2,-1,-1,2
51414378286,-1,-1,-1,-3,3,0,7,0
51414393326,9,1,-1,-2,-4,0,-1,3
51414393326,-6,-1,-2,-2,3,0,1,1
51414400793,-1,-4,1,1,-3,-4,-4,-5
51414400793,-2,-2,-3,-3,4,3,1,0
51414415598,1,-1,-3,6,-1,-4,0,-2
51414415598,0,-1,2,-1,0,3,1,-1
51414432639,-1,-3,-2,-2,-4,4,-1,-1
51414432639,-1,-1,1,-1,-4,-7,2,1
51414434196,-4,2,2,-1,-4,-1,-3,0
51414434196,-2,-2,-2,0,-5,-4,-2,-3
51414435367,0,-2,-2,-2,-2,-2,-2,-3
51414435367,2,-3,-2,-5,-6,-1,-4,0
51414445932,-1,-1,-2,-1,12,1,5,-1
51414445932,-4,-2,-1,1,-11,-3,-1,-3
51414453323,8,5,3,-1,-12,-4,-4,0
51414453323,-1,-2,-5,-4,7,5,5,1
51414468268,-5,-4,-2,-2,4,-1,-4,-2
51414468268,2,-1,1,2,-3,0,-6,0
51414475657,-2,0,-1,-3,3,-1,1,1
51414475657,-1,-2,-3,1,12,5,2,0
51414490801,-1,-1,3,1,-17,-5,-1,2
51414490801,-10,-4,-5,-4,0,-1,0,-3
51414507788,-2,-2,-3,-2,2,-1,-2,0
51414507788,-1,1,1,-1,6,2,2,0
51414509320,-3,-1,-1,-1,-1,-1,-2,-2
51414509320,0,-2,-4,-2,-1,-2,0,-1
51414510245,-1,-1,-2,0,3,-1,0,-3
51414510245,0,0,-1,2,-5,-1,-2,-1
51414520658,0,1,-5,-12,-15,-6,-1,-2
51414520658,-1,1,3,-1,8,0,0,0
51414528169,-3,-2,-6,-10,-1,-2,-1,-3
51414528169,3,-1,8,17,1,-4,-3,0
51414543288,-2,-2,-4,-2,9,4,-2,1
51414543288,0,-2,-2,-2,1,-5,-5,-1
51414550836,-1,-2,-1,-2,1,10,4,1
51414550836,-2,-1,-2,-3,-4,-1,-5,-4
51414565725,3,1,1,2,3,-9,0,0
51414565725,0,-1,-2,-2,-3,-1,0,-1
51414573245,-1,-2,-3,-2,-2,-3,-4,-1
51414573245,3,-1,-3,-5,-4,-1,-2,-1
51414588283,-14,-4,0,4,3,1,-2,-5
51414588283,1,-1,-1,1,4,-2,-2,1
51414596390,-3,-1,0,-1,-2,-3,-1,0
51414596390,-1,0,1,2,-4,-1,1,0
51414603203,-4,-3,-2,-5,10,6,0,-1
51414603203,2,1,0,-2,-3,0,-3,-1
51414610655,-6,-3,0,5,6,4,1,-4
51414610655,-1,0,-1,-2,13,-2,-1,-3
51414625705,2,0,1,-1,-13,-3,-1,1
51414625705,-1,-1,-3,-2,-5,-3,-3,0
51414633297,1,1,3,6,-1,-2,-1,-1
51414633297,6,1,-1,-4,8,3,1,3
51414648250,5,-1,0,3,4,-1,-1,0
51414648250,0,0,-1,1,-3,-1,1,-2
51414655646,-2,-2,-1,3,-7,-4,-5,-1
51414655646,8,2,2,0,-6,3,10,3
51414670773,-8,-1,1,1,5,2,-2,-1
51414670773,-4,-2,-1,3,-4,0,1,0
51414678975,8,0,-3,-4,2,0,6,1
51414678975,-4,-1,-2,-2,0,-1,-7,-3
51414685732,3,-1,-5,-14,-9,-2,2,0
51414685732,0,0,2,11,2,1,-1,-1
51414700644,-4,1,3,1,-3,-1,-1,-3
51414700644,-6,-4,-2,-3,3,1,-3,-3
51414708161,0,-1,-1,-5,-18,-6,4,2
51414708161,-2,-3,0,-4,-3,-4,-4,-1
51414723273,-1,-3,-4,-2,-3,-2,-1,0
51414723273,-2,0,-1,-4,0,-1,1,-2
51414730658,0,-1,-1,5,-3,-3,-3,-2
51414730658,3,1,1,-4,0,-2,1,-1
51414745843,-3,-2,-5,-3,-7,0,-2,-1
51414745843,-3,-1,0,0,-1,3,-1,-1
51414753293,-5,-2,-1,1,2,0,1,1
51414753293,-6,-3,-4,-7,-4,-5,-2,-3
51414770282,-1,-1,-1,-1,6,1,1,-1
51414770282,-3,-1,0,1,-11,-5,-2,-1
51414770903,0,-3,-2,-3,4,1,-2,-3
51414770903,3,-2,-1,1,4,3,-2,2
51414772553,-3,0,1,-1,0,3,10,2
51414772553,-2,-3,-4,-4,-4,-4,-7,-3
51414783165,0,-1,2,5,6,1,-1,-1
51414783165,0,-1,0,-2,-3,-2,-2,-3
51414798155,1,-1,-1,0,2,2,0,0
51414798155,-6,-4,1,0,-4,-2,-1,-2
51414805614,-3,0,-3,-1,14,0,-2,-2
51414805614,-4,-1,0,1,-15,0,4,-2
51414820603,0,1,1,2,2,-1,-4,0
51414820603,-5,-2,0,-2,-5,-6,-1,-3
51414828090,1,-4,-5,-3,9,1,-4,-3
51414828090,0,-1,-1,2,5,0,0,0
