timestamp,emg1,emg2,emg3,emg4,emg5,emg6,emg7,emg8
51446611919,-8,-4,3,12,7,-4,-5,-4
51446611919,5,-1,-3,-17,2,0,-1,-3
51446619377,-3,-4,-6,-5,-4,1,-2,-3
51446619377,4,3,1,-9,2,6,2,3
51446626815,2,1,2,5,-6,-4,-3,0
51446626815,-5,-2,-6,6,0,-1,-2,1
51446634281,0,-3,4,9,3,0,-3,-5
51446634281,-9,-2,-8,-15,-9,-1,0,-6
51446649450,8,-3,-2,-2,0,0,-1,1
51446649450,2,-1,2,2,3,5,2,0
51446656944,-4,2,0,-6,-12,-6,-1,-1
51446656944,-1,1,2,10,10,-6,-1,3
51446671929,-15,-2,0,10,16,2,-2,-5
51446671929,9,6,2,-10,-28,-7,-1,3
51446682005,-4,2,9,23,11,4,2,1
51446682005,-2,-5,0,-2,-1,2,-2,-2
51446684479,3,3,-4,-15,-13,-1,-3,1
51446684479,0,-3,0,-2,11,5,-1,-6
51446686601,-6,-6,1,13,-1,-16,-9,-4
51446686601,-12,-3,2,2,-5,-4,-1,-4
51446689729,1,-2,-4,-1,-3,-2,-5,-1
51446689729,-11,-3,1,-10,-3,1,10,-4
51446690727,18,-4,-19,-21,-9,2,-1,6
51446690727,-1,-2,8,15,4,-4,-5,-5
51446703326,2,-2,1,-2,-3,0,3,-2
51446703326,1,6,2,5,1,-5,-4,6
51446709671,8,4,-3,-8,4,4,5,-2
51446709671,-3,-4,-7,-6,-2,-4,-3,-4
51446725631,-4,-2,-8,-23,-20,-10,-1,-3
51446725631,13,8,12,32,18,7,1,2
51446732122,-6,3,2,0,-5,3,-1,0
51446732122,8,-1,-3,-14,-11,1,0,4
51446748143,-1,-3,-3,-1,-8,-4,-4,-4
51446748143,-19,-11,1,12,-2,-3,-5,-9
51446754703,1,0,-8,-43,4,-3,-6,5
51446754703,8,-1,8,46,24,12,10,0
51446763876,-14,-6,-5,-7,-3,7,-5,-7
51446763876,0,-2,-7,-11,-3,-9,-1,0
51446806936,4,3,-1,0,17,0,2,-2
51446806936,-4,0,4,-6,-35,-6,-5,-1
51446814431,-3,0,-3,0,0,-1,1,0
51446814431,-10,-9,-1,-2,6,-4,-4,-6
51446821995,-3,0,3,10,-5,1,1,1
51446821995,0,0,-6,-10,2,4,-1,1
51446829292,-4,-2,0,-8,-5,-5,-3,-3
51446829292,9,1,2,12,8,6,-3,5
51446844429,-5,0,-6,-21,-25,-8,6,4
51446844429,-10,-7,-7,-2,-2,-3,-3,-14
51446854704,2,1,1,0,-2,2,0,1
51446854704,2,2,-3,-27,-12,-8,0,1
51446856101,-5,-7,2,22,2,8,-2,-1
51446856101,11,2,2,21,16,1,5,7
51446857020,3,7,13,29,5,-3,4,-4
51446857020,-2,-1,-2,-15,-19,-12,-19,-4
51446861432,1,-5,-4,-13,-5,19,15,5
51446861432,-10,3,3,1,0,-16,-12,-4
51446862488,8,-1,-6,1,30,18,6,0
51446862488,8,2,-2,4,-42,-29,-7,1
51446874271,7,3,-2,-18,-1,-5,-1,4
51446874271,1,1,2,-5,-9,-2,1,-1
51446881755,-12,-7,-5,-5,-5,-7,-4,-2
51446881755,0,3,-1,10,16,15,5,-1
51446896967,4,-1,-3,-14,4,-5,-4,0
51446896967,-1,1,6,16,4,-1,-3,-3
51446904485,16,6,6,5,20,3,1,7
51446904485,-6,-3,-18,-39,-14,1,6,-3
51446919313,0,8,15,17,12,8,2,0
51446919313,14,-3,-7,-10,-13,-2,-7,2
51446926902,-2,-2,0,-5,-18,-9,-2,-9
51446926902,-1,1,6,24,20,10,12,1
51446935759,-9,0,-2,3,-1,-10,-9,-2
51446935759,7,0,0,-7,6,1,0,-1
51446942027,-3,-1,-3,-4,-6,-10,-15,2
51446942027,0,0,4,7,-11,-2,-2,0
51446956914,-3,-9,-19,-10,-4,-11,-7,-9
51446956914,-4,-4,-2,9,3,8,5,4
51446964473,4,5,3,-10,-19,-4,-5,5
51446964473,-23,-12,-2,42,19,-15,-15,-20
51446979296,6,-3,-6,-34,-14,8,3,2
51446979296,5,3,0,-11,16,3,-26,7
51446986900,-5,-2,-2,10,8,10,47,-2
51446986900,20,15,7,-6,-16,8,9,5
51447002128,-13,-16,-2,4,2,-18,-18,-2
51447002128,0,0,3,19,7,9,2,-13
51447009280,-2,-9,-19,-56,-12,-5,5,3
51447009280,-4,-1,4,1,13,7,1,2
51447025044,4,4,7,29,1,-8,-5,-3
51447025044,-2,-1,-9,-49,-34,-7,1,7
51447025769,-5,-1,10,49,27,2,-12,-5
51447025769,11,-7,-12,-21,5,2,1,4
51447033220,-4,2,1,1,-8,-13,-17,-9
51447033220,9,1,7,21,5,4,13,2
51447039281,-6,-1,-4,-9,-22,-13,-11,-6
51447039281,6,5,2,-3,3,5,8,5
51447054439,5,14,3,-1,7,6,0,0
51447054439,-6,-17,-13,-21,-6,1,5,0
51447061948,-16,0,0,7,-3,-12,-29,-9
51447061948,-17,-25,-3,4,-2,9,-10,-5
51447076933,3,4,-1,3,4,16,13,3
51447076933,-8,5,-1,-15,10,4,15,-1
51447084298,6,3,-2,27,-4,5,-5,2
51447084298,4,0,-6,-17,-10,-16,-16,4
51447099285,-1,0,4,9,7,4,9,-1
51447099285,-13,-4,-2,-1,1,4,-4,-8
51447115847,1,-2,-1,8,2,-2,0,5
51447115847,-17,0,1,0,-7,-10,2,-4
51447117415,4,-1,-5,-10,0,8,7,1
51447117415,-1,-3,-2,8,4,-10,-5,4
51447121769,-1,-4,1,-2,1,4,3,-2
51447121769,-2,-1,-10,-19,-30,-3,3,-2
51447136818,-5,-2,-7,-31,-8,-8,-5,-2
51447136818,-8,2,4,15,-14,-8,-3,-3
51447144459,-2,-4,2,33,15,6,1,-2
51447144459,21,14,9,-2,29,14,7,6
51447166828,-20,-10,-5,11,-15,-10,-2,-8
51447166828,11,1,-5,-8,1,-6,-17,7
51447174293,1,-4,-3,-12,-5,9,35,-9
51447174293,9,6,2,6,4,-6,-22,-2
51447189319,3,7,-1,5,-5,0,5,2
51447189319,-6,-3,0,-12,4,-10,-9,-5
51447198287,9,0,-1,-11,-8,21,30,13
51447198287,4,-3,-7,-6,0,-10,-11,-12
51447199915,8,0,-3,-1,4,5,3,2
51447199915,-1,3,8,18,2,-18,-11,1
51447204263,10,7,-5,-27,-6,1,-12,5
51447204263,-13,-3,-7,-14,1,5,12,0
51447219281,14,0,8,26,-3,-14,-8,5
51447219281,-7,-2,-5,15,2,9,15,0
51447227165,-3,-6,-11,-54,-12,-4,-13,-3
51447227165,-10,-6,-10,11,6,6,7,-3
51447249298,-6,-5,4,-9,0,-4,-12,1
51447249298,-23,-10,-10,3,-2,-1,5,-22
51447256895,-3,-2,-7,-20,-18,-18,-2,1
51447256895,-1,1,11,19,-2,-1,2,2
51447289514,-12,-5,-5,-11,-4,3,-21,-6
51447289514,15,2,5,8,26,15,36,10
51447290270,4,2,7,12,-9,-7,-17,-5
51447290270,-6,-2,3,6,-1,11,7,-2
51447291914,4,-2,-5,1,11,-3,-5,-2
51447291914,0,1,0,-14,-23,-5,-5,10
51447294425,-8,-4,-8,-6,9,-3,-12,-12
51447294425,-1,-3,14,23,9,-9,-14,2
51447309404,18,3,-4,-7,7,19,17,2
51447309404,-13,15,5,-10,-2,1,-5,-5
51447316889,-1,-5,3,8,0,-10,-7,4
51447316889,-17,-10,-12,-17,-6,-4,8,-5
51447331748,-4,-2,2,16,7,-1,2,-1
51447331748,6,-2,3,7,1,-5,-12,8
51447339458,3,3,-7,-15,-8,9,-5,-6
51447339458,3,-1,10,16,6,-2,-3,-1
51447361968,-18,-4,-1,-4,-6,-8,-14,-8
51447361968,5,1,-3,3,2,15,41,7
51447371938,-3,1,5,12,10,-2,-13,0
51447371938,10,0,-6,-14,-16,4,19,1
51447373400,-7,-5,-5,-11,-16,-2,1,-5
51447373400,6,-2,5,6,4,-5,-18,-3
51447374199,1,3,-3,-12,4,-1,-13,3
51447374199,-9,-4,0,13,3,2,23,-6
51447378206,1,3,1,-7,-3,-15,9,0
51447378206,-17,-7,-5,2,-1,6,-5,-10
51447391723,3,2,3,19,9,2,1,5
51447391723,5,4,-1,-27,-8,-6,-12,-3
51447406942,-5,-8,-14,-19,-11,-18,-17,-4
51447406942,5,-2,6,26,3,16,-3,-6
51447421766,-15,-10,-9,0,-9,-15,-17,-9
51447421766,-1,0,-4,-4,11,9,22,9
51447444176,-3,-2,5,7,-1,-3,4,2
51447444176,-1,-4,-9,-17,0,-3,-2,-5
51447454148,-2,2,6,17,2,3,-3,3
51447454148,3,7,-1,-10,-3,-4,-13,0
51447461315,-17,-11,-6,9,2,1,3,-5
51447461315,12,2,2,-18,-4,-5,-10,1
51447462114,-18,-8,-10,-19,-11,-7,1,3
51447462114,2,3,13,36,19,14,17,-10
51447463692,-9,-3,-3,-12,-13,-3,2,-3
51447463692,-2,-2,-3,8,20,-11,-17,-4
51447468122,3,-2,-1,-12,-32,7,7,1
51447468122,-29,-2,-2,-18,-9,-18,-29,-1
51447496846,18,5,5,18,-1,6,-16,-2
51447496846,-1,-6,-6,-7,10,19,17,2
51447504272,4,0,4,-3,-1,-8,6,-2
51447504272,-3,-1,-4,4,2,-3,-11,1
51447526756,1,2,7,8,6,0,-7,-3
51447526756,4,-1,-4,-8,-9,-11,-5,4
51447534351,8,3,3,18,12,-5,-11,-9
51447534351,-22,-11,-13,-18,-12,2,7,-2
51447545019,1,2,3,-3,3,-7,-11,-2
51447545019,-4,-2,-2,11,-5,18,5,-2
51447545929,8,0,-6,-8,-6,-2,3,-1
51447545929,14,3,4,11,8,-4,-6,5
51447552338,2,-2,-4,-8,-1,3,0,-7
51447552338,-8,-1,0,-5,-7,-12,-3,0
51447553058,3,3,7,8,9,9,8,4
51447553058,2,-2,-4,0,-4,-5,-13,-1
51447556916,0,1,3,5,5,7,1,2
51447556916,-1,-1,-4,-16,-8,-3,32,0
51447564266,-9,-4,2,5,6,4,3,-4
51447564266,6,1,-1,-2,0,4,5,2
51447579269,-6,-1,6,16,-6,4,5,-1
51447579269,2,2,0,-28,0,-13,-25,0
51447586723,17,6,7,17,9,0,7,13
51447586723,-4,-5,-9,3,-9,0,8,-12
51447602485,4,-1,-2,-16,2,8,12,1
51447602485,-18,-8,-9,5,-6,4,-14,-7
51447609429,-2,0,-1,-5,7,3,6,3
51447609429,8,-3,-1,2,-2,-5,-28,0
51447634673,-2,1,3,11,9,3,3,0
51447634673,8,2,-3,3,-6,0,6,-1
51447634744,-7,-4,-5,-18,-3,-3,-4,-5
51447634744,16,8,2,1,8,-4,-15,7
51447637213,-30,-10,-5,-4,-2,11,36,-6
51447637213,-4,0,0,-3,-6,-11,-13,-1
51447646785,-4,-4,-2,-1,-1,-5,1,-10
51447646785,9,1,-4,-10,-2,2,5,9
51447661771,-1,-1,-3,9,-2,-2,-9,-1
51447661771,5,0,3,-4,-7,-9,-13,-3
51447669238,-11,-2,-2,3,-2,0,4,-1
51447669238,-2,0,3,1,-4,-4,4,-4
51447684252,10,6,-1,-5,-7,2,9,23
51447684252,-4,-8,-4,4,11,0,0,-27
51447691806,4,5,5,1,-3,-18,-9,-5
51447691806,-5,-3,1,7,4,17,7,-3
51447706784,9,2,-5,-18,-3,-8,-9,-2
51447706784,-2,-3,-9,-8,-6,-2,6,7
51447715634,0,0,10,18,0,4,0,0
51447715634,-3,-4,-6,-8,-6,-10,-19,-7
51447717209,-4,1,-2,1,4,4,38,5
51447717209,8,1,1,7,-4,-2,-5,3
51447721815,-2,1,-2,-8,-5,-7,-20,7
51447721815,-15,-4,-5,-9,-4,7,35,-12
51447744240,3,0,8,12,6,5,-13,-5
51447744240,-6,2,4,15,-5,-5,1,2
51447751761,-3,1,0,-8,5,7,5,1
51447751761,14,0,-6,-20,-12,-14,-16,3
51447766850,1,-3,-4,-6,1,-6,-9,-2
51447766850,12,1,4,12,3,4,2,1
51447774263,-12,-2,1,12,-2,-5,-4,-1
51447774263,4,-1,2,4,3,4,3,2
51447789426,4,0,-7,-14,-6,-5,-5,-5
51447789426,0,3,6,6,-2,-8,-25,2
51447805676,-8,-2,-7,-14,-3,26,45,4
51447805676,-1,1,4,-2,2,-2,12,6
51447807222,-3,-5,-5,16,0,-7,-25,-8
51447807222,1,-2,-3,-10,-2,-10,-6,6
51447811926,7,-2,-8,-17,-4,0,-2,-9
51447811926,-7,-1,-3,-7,-2,0,-12,2
51447826784,10,1,9,14,3,-11,6,3
51447826784,0,-2,-9,-11,-1,12,4,-5
51447834271,0,-5,-2,9,-7,-5,-6,-2
51447834271,-6,-3,3,6,-1,1,-2,-8
51447849371,3,3,0,-9,-2,-6,-16,-1
51447849371,0,3,4,2,0,-10,0,2
51447856901,-4,-4,-5,4,-2,-7,-21,-7
51447856901,-12,-2,-4,-16,1,23,27,4
51447879264,6,-1,2,-4,-2,-1,-22,-9
51447879264,-2,-2,-4,-11,-4,-5,24,4
51447889652,1,1,6,20,4,-4,-17,-2
51447889652,6,3,3,0,-1,-13,-13,2
51447891083,-15,-6,-4,-6,-5,7,28,-6
51447891083,-4,-2,-1,-5,2,2,2,1
51447892017,1,1,-1,3,4,1,-9,-7
51447892017,0,-2,5,13,0,-4,-1,1
51447895712,0,-5,-9,-21,-6,-2,3,1
51447895712,-4,-1,8,24,-1,-3,-12,-5
51447909736,-4,-6,-10,-12,-4,-5,12,2
51447909736,-5,1,5,0,-9,-7,0,4
51447931769,-3,2,-2,1,10,-1,-29,-14
51447931769,-5,-5,-2,6,0,-12,-9,-1
51447939217,8,-2,-2,-9,0,-6,-8,17
51447939217,12,2,-5,-4,-1,4,7,-13
51447954556,-2,-3,-4,-2,-4,4,-3,2
51447954556,-3,1,-1,-5,-3,-8,-13,-6
51447961742,-3,-1,1,2,3,20,22,-3
51447961742,8,6,0,9,2,-13,-19,4
51447972725,-4,1,2,6,-3,2,28,3
51447972725,5,-3,-4,-16,-6,1,-5,0
51447973534,4,2,7,9,0,-2,-2,7
51447973534,-11,-3,-2,-2,-3,-11,-15,-15
51447976925,-2,-5,-2,8,3,-4,-19,-4
51447976925,-18,-4,-1,3,-6,19,54,7
51447991893,0,-4,-7,-18,-5,3,-15,-11
51447991893,1,-1,0,3,4,-3,13,3
51448006718,4,5,1,2,0,2,3,5
51448006718,1,-1,-3,-7,4,1,-9,-1
51448014433,-3,1,1,5,2,-5,1,-5
51448014433,1,-1,-4,2,2,-1,-2,1
51448036774,0,1,4,-3,-2,-2,3,5
51448036774,-13,-4,0,2,-1,3,-7,-11
51448044392,-2,-1,-3,-9,-3,-5,0,-4
51448044392,-7,-1,-1,14,3,-8,-12,14
51448061887,9,-1,-3,-8,-1,8,20,-15
51448061887,-1,-2,-2,-3,-5,5,-10,-5
51448062666,1,-4,-2,-3,-2,-11,-7,-5
51448062666,-19,-8,-4,-4,-6,-5,-25,-11
51448064307,2,0,-1,1,6,15,4,9
51448064307,6,1,-1,3,-3,-7,5,0
51448067338,4,-2,-9,-17,-1,-2,2,-4
51448067338,-9,-6,-4,5,-3,0,-3,-4
51448081786,-2,2,4,6,1,-3,-13,4
51448081786,3,2,6,-4,6,-2,-3,-2
51448089445,-6,1,1,-3,-3,1,-2,3
51448089445,0,-4,-4,-9,-3,-3,2,5
51448104356,-1,-2,-2,-8,-5,-5,-11,-12
51448104356,0,0,-3,-3,1,13,29,1
51448113135,-1,-3,1,10,-3,-6,-2,-4
51448113135,21,4,2,-15,2,5,4,1
51448126860,-9,-3,-3,2,-2,-5,5,9
51448126860,-3,-1,-4,-4,-6,-15,-31,-10
51448134285,-3,-1,-2,-1,-3,7,6,-2
51448134285,-11,-6,-3,-1,3,6,3,-7
51448143265,-4,-2,-2,3,2,-4,-1,4
51448143265,3,2,0,-2,-4,-10,-14,-2
51448149978,-4,-1,0,-3,-1,-5,-4,0
51448149978,5,2,2,5,-1,10,9,0
51448156826,3,0,-6,-14,-6,-17,-12,2
51448156826,-1,2,8,27,7,4,4,8
51448171739,0,-4,-4,-2,-2,0,-2,-4
51448171739,6,3,-4,-15,-4,-7,0,0
51448186707,-4,-3,-1,-2,-5,6,8,-1
51448186707,7,3,0,-7,-2,0,7,7
51448194277,-14,-5,0,0,0,-10,-12,-6
51448194277,1,-1,4,8,-3,-8,-8,-5
51448209380,4,1,-2,-2,-1,-6,-9,3
51448209380,-3,-7,-11,-17,-9,8,14,0
51448216725,6,5,10,24,8,4,4,5
51448216725,-15,-7,-7,-9,-5,-2,1,-5
51448233824,-2,1,2,-3,1,-3,-19,-1
51448233824,15,1,-2,-2,3,5,0,-4
51448234551,-1,-2,-1,-7,-3,-15,-12,-2
51448234551,7,1,-1,-2,-3,5,10,4
51448236140,-13,-3,-2,9,1,6,7,-6
51448236140,-5,-3,-4,-5,-4,-5,-11,0
51448254479,4,0,-4,-4,-3,0,6,5
51448254479,-2,0,3,4,1,-1,-6,-4
51448276931,5,0,-1,-1,-2,-2,9,4
51448276931,9,6,6,7,2,1,-6,1
51448284220,-8,-2,0,-3,-5,-7,-27,-8
51448284220,3,-1,-6,-10,1,5,16,7
51448299219,-3,0,9,19,1,6,-4,-6
51448299219,-4,0,-1,-2,-1,-6,-2,0
51448306963,2,2,0,-1,0,0,-7,-1
51448306963,5,0,0,2,-2,-6,-3,1
51448317745,3,2,-2,-3,-4,0,6,3
51448317745,-3,2,3,3,5,-1,-19,0
51448318638,-21,-11,-7,-8,-7,7,38,-25
51448318638,-3,-1,1,7,0,1,-5,-2
51448321936,-1,-3,-4,-3,3,1,-1,-2
51448321936,-5,-4,-2,4,-2,-3,9,3
51448329566,5,2,-3,-9,0,-1,-4,5
51448329566,-3,-2,3,6,2,1,-2,-2
51448344361,-2,-3,-3,-8,-4,-5,1,-3
51448344361,-33,-12,-3,-2,-6,-9,-12,-9
51448359331,0,3,-3,-4,-1,-1,6,5
51448359331,-1,-5,2,8,-1,-6,-11,-3
51448381883,4,1,-1,-7,0,1,-10,-5
51448381883,4,-1,-6,-12,2,4,8,0
51448389167,3,1,5,8,-2,-3,-9,4
51448389167,-5,-1,-4,2,0,-2,2,0
51448406402,-1,1,1,-12,-3,4,6,-2
51448406402,5,-6,-7,-6,-2,0,-7,0
51448407038,-4,-1,0,-6,-1,1,-4,3
51448407038,5,3,-1,2,5,6,9,-5
51448408646,6,2,-1,1,1,-2,2,4
51448408646,-9,-1,0,1,1,4,4,-9
51448413096,-2,-4,-7,-13,0,-3,-12,1
51448413096,-17,-4,4,14,-1,-4,-21,-6
51448414694,4,-3,-3,-1,3,3,48,15
51448414694,9,5,2,-2,-5,-7,-15,-14
51448426665,-4,-5,-3,2,-1,0,3,-1
51448426665,7,1,-8,-22,-3,6,4,1
51448441679,-3,-3,1,9,-5,-12,-33,-5
51448441679,10,4,0,3,-1,2,21,9
51448449366,8,-1,-3,-4,4,5,7,-1
51448449366,6,-1,3,5,-2,-6,-10,0
51448471735,-5,-2,-4,-10,-4,1,-2,-1
51448471735,0,-3,-5,-4,2,-5,1,4
51448479405,10,1,1,5,-7,1,-3,-1
51448479405,-5,-2,-5,-5,-2,0,2,0
51448488969,-1,1,1,1,-2,-3,-10,-4
51448488969,-2,1,0,1,3,4,-3,0
51448489828,-5,-2,-4,-5,0,-5,5,2
51448489828,5,1,1,-4,3,5,9,13
51448496438,1,-2,-2,0,-3,-10,-4,-17
51448496438,-6,-1,0,1,-2,-15,-18,-4
51448509371,7,4,0,-7,0,5,1,7
51448509371,-11,-6,-3,-3,-4,0,5,-6
51448524365,2,0,-3,-4,0,-3,-13,-4
51448524365,-19,-7,0,-9,-3,-7,-9,-2
51448539232,8,5,9,24,3,7,24,4
51448539232,1,-2,-1,-4,-6,-10,-29,-8
51448546891,-4,-4,-5,-1,-3,1,3,-1
51448546891,4,0,3,4,-4,-6,-10,-3
51448569208,-8,-3,-3,-3,-2,-2,5,-1
51448569208,4,4,-1,0,5,6,10,0
51448578729,-4,-2,0,-2,0,-2,-6,2
51448578729,9,-1,-1,-1,1,9,4,-4
51448580291,0,1,2,-1,-1,-6,-10,-1
51448580291,4,4,3,7,0,4,8,3
51448581111,-1,0,5,3,0,-1,-10,0
51448581111,-10,-2,-2,-1,-4,-8,-2,-1
51448591849,-12,-7,-5,-9,4,19,39,-3
51448591849,5,0,1,10,-4,-8,-6,-2
51448599360,-3,-2,-1,1,-2,-2,2,3
51448599360,3,3,-1,-1,3,3,-3,2
51448614191,4,1,1,0,-3,-3,-16,-1
51448614191,-9,-5,-3,-9,-4,-8,-1,0
51448621735,-5,-2,-1,1,1,4,5,-2
51448621735,3,0,-4,1,-1,3,3,1
51448644233,7,-1,-3,-5,-2,-2,1,7
51448644233,-2,-1,0,0,0,-4,-8,-3
51448651643,3,1,-5,-19,-6,-7,-2,1
51448651643,-4,-3,-6,-4,-2,1,0,-5
51448661386,-2,1,2,-3,-1,-6,-9,-2
51448661386,-1,-1,2,-1,-3,4,3,-1
51448662286,0,-1,-1,8,1,0,0,0
51448662286,-1,0,-2,-3,-3,2,6,1
51448681720,-2,-5,-3,1,-3,-8,-8,-6
51448681720,3,1,-1,-12,-2,-4,-8,-3
51448689211,0,-2,4,11,1,-2,2,0
51448689211,5,0,2,2,-3,-13,-18,2
51448711671,13,3,-1,3,1,9,4,-2
51448711671,-17,-2,-4,-7,1,-6,3,4
51448719181,-8,-5,-5,-7,-1,0,-10,-9
51448719181,-1,2,2,6,1,-2,-3,2
51448741831,-4,-3,-3,-5,-8,-17,-13,-7
51448741831,3,0,-3,-3,2,14,9,2
