timestamp,emg1,emg2,emg3,emg4,emg5,emg6,emg7,emg8
68000537236,-4,-1,2,-3,-2,-2,-11,-5
68000537236,3,5,1,-3,6,6,18,1
68000544393,1,-4,7,17,-3,-1,-2,1
68000544393,-3,-5,6,0,-4,-7,-12,-5
68000546481,1,1,-4,0,2,2,13,5
68000546481,-3,-4,2,0,-3,-5,-11,-4
68000547155,-3,2,-12,-9,-3,-8,-6,-4
68000547155,-3,-4,-4,-3,2,15,11,6
68000549383,3,3,4,2,1,-2,-6,-2
68000549383,0,-5,-7,-3,-5,-2,1,-3
68000560846,0,2,1,-1,1,2,3,-2
68000560846,1,-2,-2,0,-3,-4,-4,0
68000573135,-3,-1,0,-2,-3,-2,0,-3
68000573135,-2,-2,-2,0,-1,2,2,1
68000580670,-2,2,-3,-3,-1,-2,-10,-3
68000580670,-2,0,5,1,0,1,29,3
68000588089,-1,-1,-3,1,-1,3,-3,1
68000588089,1,-2,1,2,-5,-7,-9,-2
68000602892,-1,-6,-1,-11,-5,1,5,-2
68000602892,0,5,1,6,2,0,-9,-2
68000609571,-4,-6,-8,-8,-2,-4,8,0
68000609571,4,1,0,2,5,3,-2,0
68000656892,-2,0,0,0,3,3,1,0
68000656892,-2,2,-2,2,-2,-4,-7,-2
68000657540,-1,-2,-3,-7,-1,2,4,0
68000657540,-1,-2,1,1,1,0,5,-1
68000658297,0,1,4,0,-2,-4,-11,-3
68000658297,0,-1,-7,-1,1,-1,-4,-2
68000661779,-2,-3,-8,8,-2,-3,-3,-3
68000661779,0,5,14,2,-2,1,2,0
68000669224,-8,-19,-45,-32,-14,-8,-4,-7
68000669224,-2,-1,4,3,0,-1,-3,-2
68000678037,0,1,2,-1,-5,-6,-4,-3
68000678037,0,3,-2,-1,3,4,4,-2
68000684188,2,1,5,8,4,0,-10,3
68000684188,2,-4,3,4,6,4,5,1
68000699177,-5,-2,-3,-5,-3,4,3,2
68000699177,2,4,-2,-4,-6,-7,-1,-2
68000706564,1,-4,7,3,-4,0,-3,0
68000706564,-2,-1,-6,-3,-1,-1,-1,-2
68000715588,5,7,7,1,-3,-4,-2,-3
68000715588,-4,-7,-7,-5,3,-1,-12,-2
68000729142,-1,0,5,5,-1,1,5,-1
68000729142,-3,-2,0,-6,-4,0,9,1
68000738075,-1,4,-1,-1,-1,-1,0,0
68000738075,-2,0,-5,-4,-6,-6,-9,-2
68000744186,1,1,4,4,1,-1,3,0
68000744186,-1,-5,-2,-5,-1,0,-2,-2
68000767274,-1,-3,-2,-3,-4,-4,-5,0
68000767274,2,6,-6,1,6,7,9,2
68000767950,-3,-10,3,1,0,-2,1,-1
68000767950,-4,2,0,-1,-5,-5,-4,-1
68000775516,4,-2,3,4,3,4,3,1
68000775516,-1,-7,-5,-10,-3,-6,-5,-2
68000789197,-1,3,3,-1,-2,-2,1,-2
68000789197,2,6,0,-3,-3,-3,-4,-3
68000797976,-12,-22,-4,-5,-2,-3,6,-4
68000797976,5,6,0,3,0,2,-2,3
68000804085,-3,4,-1,1,3,1,1,-1
68000804085,0,-2,1,-2,-3,-1,3,0
68000819212,0,2,3,1,3,0,-5,0
68000819212,-3,-5,-2,0,-2,0,-3,-2
68000826582,-3,-4,0,0,-2,-1,0,-1
68000826582,1,0,2,2,2,2,0,-1
68000835550,2,5,1,2,4,2,0,0
68000835550,-5,-6,-5,-4,-5,-3,-2,-2
68000849307,1,6,2,0,2,0,0,-1
68000849307,-5,-10,2,4,0,0,2,-3
68000858012,0,5,-1,-2,-1,0,-3,-1
68000858012,-6,-9,1,2,-3,-4,1,-2
68000864225,3,6,4,1,2,-1,-4,-1
68000864225,-2,-5,-7,-4,-5,-3,-4,-1
68000879257,1,4,1,2,1,1,1,-1
68000879257,0,3,3,1,1,-2,-3,-2
68000886812,-1,-12,-2,-3,-3,0,4,-1
68000886812,1,5,-7,0,4,3,-1,0
68000895595,-1,-4,-8,-9,-1,2,-2,-2
68000895595,-4,-1,-3,-4,-6,-5,0,0
68000909244,-1,2,2,0,3,1,-1,0
68000909244,6,3,3,0,-3,-2,-5,0
68000918104,-8,-2,-3,1,-4,0,6,-1
68000918104,2,-4,-1,3,3,3,1,-2
68000924257,-2,3,1,-5,-5,-5,-5,-2
68000924257,-2,-3,-11,-2,1,-1,1,1
68000939274,0,-1,-2,-4,-2,-5,-5,-1
68000939274,0,1,3,1,-1,0,-2,-1
68000946755,1,1,-5,-2,-2,-2,0,1
68000946755,-2,-1,2,-2,-1,-4,-3,-1
68000955573,3,-1,1,1,0,-2,-1,-2
68000955573,-4,-2,-1,-1,-1,-3,4,-1
68000969175,-1,-2,-3,1,-3,-1,-6,-1
68000969175,-3,-1,3,-1,-2,1,-1,-3
68000978000,0,-1,1,-1,-1,-3,-2,0
68000978000,0,-2,-4,-4,-1,-1,-3,-2
68000984215,-2,1,-4,-3,-1,-1,1,-1
68000984215,0,-1,-1,-5,-3,-1,-1,-2
68000999247,-1,1,5,3,-2,-5,-6,-2
68000999247,1,-7,-6,-5,-1,0,-4,0
68001006807,0,1,-1,0,-1,0,1,-2
68001006807,-1,-2,-1,-3,0,1,3,1
68001015651,0,1,3,3,0,2,-1,-3
68001015651,1,3,1,0,-3,-2,-2,1
68001029179,-3,-5,3,2,-2,-1,3,0
68001029179,-1,-2,-5,-7,-1,0,-1,-2
68001038022,0,-6,-5,-6,-3,0,5,-2
68001038022,-3,-2,0,2,0,-3,-2,-1
68001044304,1,2,0,0,1,2,6,1
68001044304,-1,2,6,4,1,1,1,0
68001059140,-2,-5,-14,-6,1,-2,-4,0
68001059140,2,1,3,2,-2,-1,4,-1
68001066604,-1,-2,-3,-5,-4,-3,-3,-3
68001066604,-5,1,3,1,-2,-4,-3,-1
68001075559,-1,-4,-2,-2,3,3,-2,-1
68001075559,1,5,2,5,1,2,0,-1
68001089166,0,-1,0,0,-6,-6,-6,-1
68001089166,0,-1,3,4,4,3,2,0
68001097990,-1,-1,0,-3,-2,-3,-4,-1
68001097990,0,-1,2,-3,-2,0,2,-3
68001103981,-1,-4,-8,-5,-1,-2,-7,-3
68001103981,1,-1,0,2,-2,-1,0,0
68001119116,-2,-5,-7,-5,-2,-4,0,-2
68001119116,-2,-1,2,-2,0,-2,-7,-1
68001126636,1,3,0,1,-1,4,4,0
68001126636,-1,-4,0,1,1,-2,0,-2
68001135546,-1,0,1,4,-1,-1,-1,0
68001135546,-4,-3,-2,-2,-3,-1,-2,-1
68001149138,-2,-2,0,-3,-1,-1,-4,-2
68001149138,1,1,-2,-3,-4,-3,-3,-2
68001158119,2,4,1,-1,-1,-1,-4,0
68001158119,3,-1,0,1,2,0,-6,-2
68001164184,-10,-4,1,-2,-1,1,8,1
68001164184,2,-2,-11,-4,0,0,-1,0
68001179262,-4,-4,-9,-12,-5,-2,1,-3
68001179262,1,-1,2,3,0,-6,-7,-2
68001186893,4,5,7,7,3,5,8,0
68001186893,-1,-5,-6,-5,-4,-3,-4,1
68001201711,-2,1,3,2,-1,-1,-2,-2
68001201711,-2,-1,-2,-1,-1,0,1,1
68001209290,2,-2,-2,-3,1,-1,-3,0
68001209290,0,-2,2,-1,-6,-6,-1,-2
68001218015,0,-2,1,3,4,3,-1,-1
68001218015,-1,1,-1,-1,-5,-3,-1,-2
68001224265,-2,-3,0,0,-2,-4,-5,-3
68001224265,-1,-1,6,2,2,2,-4,-1
68001239224,-2,-2,-8,-4,-3,-2,-7,-1
68001239224,-2,-2,3,-1,-4,-3,-4,-1
68001246788,2,0,-7,-7,-1,-1,-1,-1
68001246788,-1,-2,0,2,1,-1,-6,-4
68001261763,-1,1,-2,-4,0,0,6,-1
68001261763,-3,-5,-7,-7,2,3,-4,-2
68001269061,3,0,2,1,-2,-2,6,-1
68001269061,-4,0,-1,1,-1,-2,-3,-2
68001278027,0,1,8,4,-1,-3,-1,-1
68001278027,0,-3,-1,-3,-1,2,4,0
68001284184,0,-3,-2,-2,-2,-3,-5,-2
68001284184,-1,1,1,-2,-3,-5,-2,0
68001299065,-3,-1,3,2,2,1,1,-1
68001299065,3,2,1,1,2,2,2,1
68001306778,-2,-5,-1,2,0,-2,-5,-2
68001306778,0,2,0,-1,-5,0,4,-1
68001321625,-1,0,-3,-1,-4,-2,1,-2
68001321625,-3,-1,1,-4,-4,-3,-3,-3
68001329233,0,2,-1,1,3,1,-4,2
68001329233,-1,0,-1,-2,-2,-1,-2,0
68001337982,1,-3,2,1,-1,1,-8,1
68001337982,-1,-2,-1,-1,-2,-1,2,-1
68001344246,-1,-1,-1,-3,-5,-3,1,-2
68001344246,-2,-3,-4,-3,1,2,1,-1
68001359257,3,0,3,1,-2,1,2,-1
68001359257,-2,4,-2,-1,0,-2,-2,-1
68001366708,1,0,7,1,1,0,-4,-2
68001366708,-2,-1,-8,-4,-1,-1,-1,-4
68001381647,2,-3,2,1,-2,-2,1,-1
68001381647,-1,-2,-3,1,2,5,3,1
68001389194,-3,0,3,0,1,2,-1,-1
68001389194,0,1,-1,-4,-4,-2,-1,0
68001398008,-5,-4,-1,3,-1,-2,-3,-2
68001398008,-1,-6,-2,-2,-7,-7,-2,-3
68001404141,0,3,-1,-2,2,1,-3,-2
68001404141,0,-2,-3,0,-1,-3,-1,-2
68001419203,-3,2,2,-1,1,-2,3,0
68001419203,-2,-1,1,2,-1,0,-2,1
68001426598,-2,-3,-3,-3,-3,-2,-3,-2
68001426598,0,-1,1,0,1,-3,-2,-1
68001441567,-2,-3,3,1,-1,0,0,-1
68001441567,0,-2,-12,-9,-3,-1,-2,-2
68001449050,-1,1,-1,0,-1,-2,-1,0
68001449050,-3,-4,1,0,1,-1,-3,0
68001457988,0,2,0,-1,-1,0,0,-2
68001457988,2,0,0,0,1,-1,-1,-2
68001472215,-1,-3,7,7,-2,-2,-3,-2
68001472215,-1,-2,-17,-20,-5,-2,1,-1
68001479176,-2,-2,5,1,-1,-1,-3,-2
68001479176,-2,2,-3,-1,1,-1,-1,1
68001486665,-1,1,-2,4,0,-1,-1,0
68001486665,1,-2,1,6,2,1,1,0
68001501471,5,1,2,-4,-3,-2,0,-2
68001501471,-4,-2,-4,-1,2,1,0,-2
68001509054,3,1,4,-1,-2,-2,1,-2
68001509054,-3,0,4,8,3,3,0,-1
68001518035,-1,2,8,7,-2,-3,-5,-1
68001518035,2,-4,-14,-5,0,-1,2,0
68001532154,-5,0,11,10,0,-2,0,-3
68001532154,10,0,-13,-15,0,0,-2,3
68001539190,-18,-8,-6,7,0,2,-1,-6
68001539190,10,-6,17,6,-1,-4,-3,0
68001546602,7,1,-9,-6,1,1,-1,2
68001546602,-1,2,19,21,-2,-3,-1,-2
68001561733,1,2,-7,-7,-1,-1,1,3
68001561733,-4,-2,1,15,-4,-4,-1,-4
68001569115,-1,-2,-17,-32,-6,-1,-2,-4
68001569115,0,-2,12,8,0,0,1,8
68001578081,2,-1,-10,1,0,0,-2,0
68001578081,-4,2,16,-1,-1,-2,0,-3
68001592389,-3,-7,-38,-3,-3,-2,-1,2
68001592389,-15,-3,-5,-14,-3,-2,-5,-11
68001599172,20,0,-1,-3,0,-1,-1,9
68001599172,2,2,4,2,4,4,0,3
68001606796,-7,-2,-9,-12,-2,-1,3,0
68001606796,-3,-1,5,6,2,0,1,1
68001621547,-8,-4,-5,-7,-1,-1,-1,-3
68001621547,-3,1,4,1,-2,-5,-4,-7
68001629009,-2,-1,6,7,0,1,-1,1
68001629009,2,2,9,-2,-3,-3,-1,-3
68001644191,6,4,5,3,-1,-1,-1,-2
68001644191,-4,0,-12,-10,-6,-2,-1,-2
68001652314,-4,1,5,6,1,-1,-1,-1
68001652314,0,-1,3,2,2,-3,-2,-2
68001659206,-3,-1,-6,-5,-1,-1,-1,-3
68001659206,0,-1,-2,-2,0,0,0,3
68001666778,1,0,7,-1,1,-1,0,-1
68001666778,-1,-2,-15,-6,-3,0,0,-3
68001681705,-2,-2,7,2,0,0,-1,0
68001681705,-2,1,-5,-5,1,1,0,-1
68001689229,2,1,10,8,-1,-2,-1,0
68001689229,2,2,8,3,1,3,1,-1
68001704090,-6,-3,-12,-15,0,1,1,-2
68001704090,0,-3,-4,5,-1,0,-1,0
68001712347,-1,-1,7,3,0,1,-1,0
68001712347,-6,-2,15,-1,-1,-3,2,-1
68001727264,17,-1,0,7,-3,-3,-1,-1
68001727264,-6,-1,-3,-8,-1,-2,-3,-5
68001727968,0,-2,-2,-2,-4,-3,-5,-9
68001727968,10,0,-11,-5,0,1,4,0
68001741807,-27,-3,-2,-1,0,-1,-1,1
68001741807,-6,-3,-4,-4,1,0,2,2
68001749242,-5,1,-3,-1,-2,-1,-2,-6
68001749242,2,-3,0,8,-1,-3,-7,-4
68001764236,1,0,-3,-1,-2,-2,0,-3
68001764236,1,-3,-8,-6,-3,-4,-3,-2
68001772473,-2,-6,-7,-7,2,2,3,5
68001772473,-2,0,1,4,-4,-2,-3,-1
68001787372,-1,0,2,4,4,-3,-1,0
68001787372,-1,0,1,-1,1,0,-1,-1
68001787971,2,-2,0,2,-2,-3,-1,0
68001787971,0,-2,-9,-4,0,0,-1,3
68001801551,0,3,2,-3,-2,-1,-3,-5
68001801551,2,-1,-1,-4,2,2,1,0
68001809185,-2,-1,13,7,1,1,1,2
68001809185,-5,-5,-7,1,-8,-6,-5,-4
68001824170,-1,-1,-15,-16,-6,-4,-2,0
68001824170,1,0,6,4,-3,-1,-1,-1
68001832330,1,-2,0,0,3,4,2,0
68001832330,-3,-1,-1,-6,0,0,-2,-1
68001847407,3,-1,0,4,-6,-4,-1,1
68001847407,-4,-1,3,0,-4,-1,-2,-9
68001848006,-2,-4,-12,-9,-3,-3,-1,-1
68001848006,3,5,7,6,4,4,1,1
68001861817,-6,-2,-5,-6,0,0,-2,0
68001861817,6,-1,0,-1,-4,-3,-3,-1
68001869206,-2,0,3,3,-1,0,2,4
68001869206,0,1,-7,-6,-1,1,0,1
68001884308,-6,-2,2,-1,2,-4,-5,-6
68001884308,1,-1,2,7,-1,-1,-3,-1
68001892393,3,3,4,-4,-9,-5,-2,-1
68001892393,3,1,-24,-18,-3,-2,0,-1
68001907191,-10,-9,2,-4,-21,-4,-1,-1
68001907191,0,-3,-3,-2,-1,-1,0,3
68001908079,-1,-2,5,-1,-7,-4,-2,-1
68001908079,-2,-1,1,2,-2,-1,0,-1
68001921830,1,0,4,-2,-2,6,2,1
68001921830,3,2,-2,-2,4,1,3,8
68001929307,-4,-3,-9,-1,-1,-3,-8,-8
68001929307,-4,-3,3,-4,-5,-2,-2,0
68001944204,3,-1,-7,-2,0,-2,-1,-1
68001944204,-3,-1,3,11,9,2,2,0
68001952457,0,-1,2,1,2,-1,1,2
68001952457,-5,-6,-1,-3,-7,-6,-4,-3
68001967201,4,4,3,4,8,3,1,2
68001967201,-5,-2,0,-2,-5,-3,-1,-7
68001967989,1,-3,-6,-3,1,2,-2,-3
68001967989,-3,0,0,0,0,0,-1,1
68001981495,1,2,5,8,6,2,0,1
68001981495,-3,0,-4,-3,0,1,1,0
68001989174,0,2,2,6,2,-1,-2,-1
68001989174,0,1,0,1,3,2,2,-2
68002003977,4,1,-3,-3,-3,-4,-1,-1
68002003977,-6,0,-2,-3,-18,-7,-5,-1
68002012176,0,-1,-3,-12,2,1,0,0
68002012176,0,2,2,19,28,7,3,1
68002027100,-1,-2,4,-1,-5,-4,-1,0
68002027100,0,-4,-5,-6,-9,-5,-8,-2
68002028136,-4,-2,-3,-7,-11,0,3,1
68002028136,-3,-2,-1,-4,-8,-3,-1,-1
68002041752,0,0,-1,2,5,0,2,-3
68002041752,-1,1,1,-5,-1,-1,-2,-2
68002049203,1,3,0,5,4,-1,0,11
68002049203,-1,-2,-5,-4,0,1,0,-1
68002064152,0,-2,0,1,0,1,0,-1
68002064152,-2,-1,-3,-3,-1,-2,0,2
68002072329,-2,0,0,-1,-1,-3,-2,-3
68002072329,0,-1,-1,1,-4,-3,-1,-2
68002087297,-1,-2,-3,-6,-4,-2,-1,-1
68002087297,1,-1,1,-1,4,1,2,-2
68002088079,-1,-1,-2,3,3,0,-2,-3
68002088079,-1,-1,1,-5,-8,-2,-3,0
68002101579,-2,-1,3,1,1,-1,0,-2
68002101579,0,-2,-6,-1,3,3,1,1
68002108977,-1,0,2,1,-2,-1,0,-4
68002108977,-1,-2,-2,-2,-3,-2,-1,-1
68002124203,-1,0,-3,-3,1,0,0,-2
68002124203,0,-2,2,5,3,1,0,-2
68002132307,-2,-2,2,2,-4,-3,-2,0
68002132307,-3,-4,-4,-6,-5,-2,-2,-3
68002147333,2,2,1,2,0,0,-2,1
68002147333,-3,-2,-6,-5,-2,-1,2,-1
68002147927,-4,-1,-3,-3,0,-1,-1,-2
68002147927,0,-1,-3,-2,-1,-2,-2,-1
68002161757,-3,-1,0,0,-1,-1,-2,0
68002161757,0,-1,0,0,-1,-1,0,-2
68002169255,0,-1,-1,-2,-1,-1,-1,-3
68002169255,0,-1,3,4,1,0,0,-1
68002184076,1,-1,-3,-1,0,0,-1,1
68002184076,-1,-1,0,-7,-3,-4,-2,-1
68002192256,-1,-2,4,6,2,1,0,-2
68002192256,-2,-2,1,-2,-6,-3,-4,-3
68002207308,-1,-2,-4,-3,0,-3,1,-2
68002207308,-2,0,1,0,-2,-2,-2,0
68002208073,-2,-1,-1,-1,1,0,0,-1
68002208073,-2,0,0,0,0,0,-1,0
68002221560,-2,-3,-8,-3,-1,1,0,-1
68002221560,0,2,0,0,-3,-1,0,-1
68002229232,0,-2,-3,-4,0,-1,0,-2
68002229232,0,-1,2,2,-2,-1,-1,0
68002244137,-1,-4,1,0,-1,0,1,-3
68002244137,-1,-1,0,-1,2,-2,-1,1
68002252371,0,-1,-3,-2,-3,-2,-1,0
68002252371,-2,-4,-4,-3,-3,-3,-1,-2
68002267144,-1,-1,0,-5,-2,-2,-1,-1
68002267144,0,-2,1,5,1,2,0,1
68002267913,0,1,-1,-2,-2,-1,-3,1
68002267913,-5,-1,0,-2,-1,-2,0,1
68002281421,-1,1,-1,-2,-2,-1,-1,-1
68002281421,-1,-1,1,1,1,1,1,-1
68002289781,3,2,2,2,2,2,0,0
68002289781,1,-2,-9,-1,-1,0,-1,-2
68002304172,-2,-1,2,1,-2,-2,-3,-3
68002304172,1,-1,-4,-1,-1,0,-1,0
68002312305,-1,-4,-2,-3,-4,-4,-4,-2
68002312305,1,0,2,-1,0,-1,0,0
68002327405,-2,0,0,0,0,-1,0,-2
68002327405,-2,-2,-1,2,-1,1,0,-1
68002328058,-2,-2,-1,-4,-2,1,-1,-4
68002328058,-1,0,0,1,0,1,-1,-2
68002341540,1,-2,-3,1,-2,-2,-3,0
68002341540,0,0,-2,0,-3,-3,-2,-2
68002349839,-3,-5,-3,0,-1,0,-2,-2
68002349839,-1,0,1,-1,1,0,2,0
68002364087,0,1,-1,0,0,-1,-2,-2
68002364087,-1,0,-1,-2,1,0,1,1
68002372342,-2,-2,0,1,-4,-3,-1,-2
68002372342,-1,-2,-3,-2,1,-1,-3,-1
68002387139,-1,-2,1,0,-2,-1,0,-1
68002387139,-2,-1,1,-1,-2,-1,-1,-1
68002388118,-2,3,-2,-3,0,-1,-1,0
68002388118,0,0,0,1,-2,-1,0,-2
68002401556,-1,-4,-4,-3,-1,1,0,1
68002401556,0,-1,-2,-2,-1,-2,-4,-2
68002409820,-1,-1,1,1,-2,1,1,-1
68002409820,-3,-1,-9,-6,-2,0,-1,-1
68002423974,0,-1,-2,0,1,-1,-1,0
68002423974,-3,-2,-1,4,-1,0,1,-2
68002432266,-1,0,1,-2,1,-3,-3,-1
68002432266,0,-1,-4,-1,0,-3,0,0
68002446681,1,-1,-2,-3,-3,-2,-1,-1
68002446681,0,-4,-1,0,-1,-3,-2,-1
68002454828,0,2,1,2,0,-1,0,0
68002454828,0,1,5,5,-2,0,-3,-1
68002461691,-4,-1,-1,-6,0,-2,-1,-2
68002461691,-3,0,1,1,2,-1,-1,-1
68002469803,0,-2,-10,-8,-3,-3,-2,1
68002469803,0,-1,-1,-2,-2,0,2,1
68002484162,-1,-1,0,3,-2,-1,-3,-2
68002484162,-1,-1,1,-2,-2,-1,-1,-2
68002492288,-1,-1,-1,-3,-1,0,-2,-2
68002492288,0,-1,-2,1,-3,-2,0,0
68002506427,0,-1,0,-3,-2,-1,1,1
68002506427,-1,0,-3,-5,-2,-2,-3,-2
68002515488,-1,-1,2,-1,0,-1,0,-1
68002515488,-2,-2,4,1,-5,-2,-2,-2
68002521424,1,-1,2,4,4,-1,0,-1
68002521424,0,0,0,0,2,3,-1,-1
68002529776,0,-2,-1,5,-1,1,1,-1
68002529776,1,-1,-3,-8,0,-2,-3,-2
68002544176,-1,-4,2,2,-8,-3,-3,-1
68002544176,-2,-4,-11,-2,4,2,-1,0
68002552361,1,1,1,2,-1,-1,-1,-1
68002552361,-2,-1,-1,0,2,1,0,1
68002566701,-1,-1,-1,-3,-8,-4,0,-1
68002566701,0,0,3,-5,-3,-2,0,-1
68002574913,-2,-3,-3,0,-5,-2,-1,0
68002574913,0,0,0,-6,-4,0,0,-2
68002590408,0,1,-2,-2,2,-1,-2,-2
68002590408,-1,1,-4,2,0,1,-2,0
68002591222,-1,0,-2,-2,1,1,-1,-1
68002591222,-3,-3,1,-1,-3,-3,-3,-3
68002603956,0,-2,-3,1,2,0,0,0
68002603956,-1,-2,-1,-4,-2,-2,-2,-1
68002612237,-1,-1,-1,0,-3,-1,-1,-1
68002612237,0,0,1,2,0,1,1,-1
68002626810,0,0,1,0,1,3,0,-1
68002626810,-1,-3,-1,-1,-2,-4,-1,-1
68002634679,-2,-1,-2,-1,-2,0,1,-1
68002634679,-1,0,-3,-3,2,-1,-1,-1
68002650539,-3,1,-1,-1,0,1,0,0
68002650539,0,0,2,2,-3,-3,-1,0
68002651218,0,-1,4,-4,-4,-2,-2,-2
68002651218,-1,-2,-7,-1,-5,-2,0,-1
68002664239,-1,-1,-3,-6,5,1,1,-1
68002664239,-1,-2,1,5,-2,0,0,-3
68002672991,-1,-1,4,2,2,0,1,1
68002672991,0,0,-4,-3,-3,-3,-2,0
68002686521,-1,-2,-8,-4,-4,-1,-1,-2
68002686521,0,-1,0,-3,-2,-2,-3,-2
68002695555,-2,0,-3,-1,0,-1,0,-1
68002695555,-3,-2,2,3,1,0,-2,-1
68002710990,-1,-2,0,-2,-2,-3,-3,0
68002710990,0,0,-1,-3,-1,1,-1,-1
68002712480,0,-1,-4,-1,-1,0,-1,-1
68002712480,-1,-2,-3,-4,0,-1,1,0
68002724219,0,-1,1,1,-4,-2,0,-2
68002724219,-1,0,2,4,4,-2,0,0
68002733073,-1,-1,-3,-3,-2,-2,-3,-2
68002733073,-2,-2,2,2,-1,0,-3,0
68002746766,-1,-2,-7,-3,-1,-1,0,0
68002746766,-1,-1,1,-2,-2,-1,1,0
68002755601,0,0,-1,0,-2,-2,-1,0
68002755601,-2,2,4,3,-2,-1,2,-2
68002770498,0,0,2,2,2,0,2,-2
68002770498,-2,0,-2,-4,-3,0,-1,-1
68002772088,-1,0,1,0,4,1,0,-1
68002772088,0,-3,-10,1,-4,-1,-2,-2
68002784230,-1,-2,4,2,0,-1,-3,-2
68002784230,0,-1,-2,-1,-2,-1,-1,-1
68002792979,-1,-1,-2,-4,-1,1,-1,-1
68002792979,-1,0,1,-2,-1,-1,0,0
68002806691,-1,1,-1,-1,0,-1,0,-1
68002806691,-1,-3,-3,-2,-3,-4,-1,0
68002815632,0,0,-2,-2,-3,-3,-3,-1
68002815632,0,1,-1,-2,1,1,1,-1
68002830613,-2,-3,-1,1,-3,-1,-1,-1
68002830613,-2,-1,1,1,3,-1,0,-1
68002832081,-1,-2,-2,-2,-3,-3,-1,-2
68002832081,1,-1,4,2,-1,-1,-3,0
68002844193,-1,-2,-8,-11,-5,0,-1,-1
68002844193,-1,0,2,1,-1,0,-3,-1
68002852973,-2,-3,-2,1,0,-2,-1,-1
68002852973,1,-1,5,-1,0,0,1,-1
68002866688,-1,-1,0,2,-1,-1,-2,-1
68002866688,-3,0,-6,-3,-2,-2,0,-1
68002875613,-3,-1,0,1,1,1,0,0
68002875613,-1,-2,-2,-1,-6,-3,-2,-3
68002898033,1,0,1,5,14,1,-2,-1
68002898033,0,-1,-1,0,-1,-1,-1,-1
68002899462,-1,-2,-4,-3,-5,-3,1,-2
68002899462,-2,-1,0,-1,-2,-1,0,-1
68002904202,0,-1,-1,-3,-5,-1,1,-1
68002904202,-1,-2,-3,-3,-2,-2,-2,-3
68002912986,-1,-3,2,-1,0,-2,-2,-1
68002912986,0,-3,-2,1,0,0,-1,-2
68002926530,-1,1,4,-2,0,-2,-1,0
68002926530,-1,-2,-3,-2,2,1,0,0
68002935552,-1,-2,-10,-2,-4,-1,0,0
68002935552,-1,-1,-5,-3,0,-2,-1,-3
68002950573,-1,0,3,3,-2,0,0,1
68002950573,-2,-1,2,-1,-2,-1,-1,-1
68002952036,2,0,1,-1,1,0,-1,1
68002952036,0,-1,0,-2,1,-2,-2,-2
68002964195,-1,-2,-3,-4,-3,-2,-1,0
68002964195,-1,0,-1,5,0,-2,-1,0
68002973016,-1,-2,-1,-4,-4,-2,-1,-1
68002973016,-1,1,2,-2,-2,0,0,-2
68002986627,-1,-1,-1,0,-2,-2,-2,-3
68002986627,0,-1,-1,-2,-3,0,0,0
68002995558,-2,1,3,-1,2,1,-1,-2
68002995558,-1,-1,-8,0,2,0,-2,1
68003010308,-1,-2,1,1,-4,-3,-2,-2
68003010308,-2,-1,1,0,3,1,-1,0
68003011957,0,-2,-2,1,3,0,1,0
68003011957,0,-2,2,-1,-2,-1,-1,-1
68003024179,-2,-1,-1,2,0,1,0,-1
68003024179,0,-2,0,0,-1,-1,0,-1
68003032967,-1,-1,-4,-3,-3,-2,-1,-2
68003032967,-1,-2,2,-1,4,2,1,-1
68003046718,-1,0,-1,2,4,-1,-1,-1
68003046718,-2,0,0,-2,-4,-2,-3,-1
68003055517,0,-2,1,2,-1,-1,-2,0
68003055517,-2,-1,-1,-1,-3,-2,-2,-2
68003070438,-2,1,-1,-2,0,-1,0,-1
68003070438,-1,-1,-1,0,5,-1,-1,-1
68003071966,-1,1,3,0,-5,-2,-1,0
68003071966,-1,-2,-8,-6,0,-2,-1,0
68003084132,-1,-2,-3,-5,-2,-1,-2,0
68003084132,1,-1,0,-2,-3,-1,0,0
68003093038,-2,0,0,1,0,1,-1,-1
68003093038,0,-1,1,-1,-1,1,-2,-1
68003106600,-1,-1,-2,2,-4,-2,0,-2
68003106600,-1,0,4,3,-3,-1,1,0
68003115543,-1,-3,-1,4,2,-1,-3,-2
68003115543,-1,-2,-8,-11,-2,0,2,1
68003130396,-2,0,2,-3,-2,-2,-6,-1
68003130396,-3,-3,-16,-13,-6,1,4,1
68003131971,-1,1,7,10,2,-1,0,0
68003131971,-1,0,3,4,0,0,-1,-3
68003144168,0,-3,-13,-16,-2,0,-2,-1
68003144168,1,0,3,2,0,0,-2,-1
68003153008,-1,-1,-5,-6,0,-1,-4,-1
68003153008,-1,0,1,1,0,-3,-3,0
68003166759,-3,-2,0,0,-2,0,0,-2
68003166759,-2,0,1,1,-2,-2,-3,-2
68003175543,-2,-3,-4,-3,-2,-1,1,0
68003175543,0,2,3,2,0,1,0,0
68003190508,-2,-1,4,7,2,0,0,0
68003190508,-1,-2,-3,-1,-1,0,-2,-1
68003191974,-1,-1,0,0,-2,-1,-1,-2
68003191974,-1,-3,0,-2,-4,-3,1,-1
68003203951,0,-3,0,-1,-2,-1,-1,0
68003203951,0,-2,0,-1,0,-2,-2,-2
68003213033,0,0,-3,-3,-1,-1,-1,-1
68003213033,0,0,2,2,-2,-3,-2,-1
68003226627,0,1,-1,3,-1,0,1,-2
68003226627,0,-1,1,0,-1,-1,-3,-1
68003235553,0,0,1,0,-1,1,2,-1
68003235553,0,-4,-4,-1,0,-2,-3,0
68003249143,-2,-1,2,0,-2,-2,-2,-1
68003249143,0,0,0,0,-1,-2,1,-1
68003258212,-1,-3,-5,-4,-3,-1,-1,-1
68003258212,0,0,1,2,-2,0,-2,-1
68003264004,0,-1,1,-1,2,0,-1,-1
68003264004,-1,-2,0,0,-2,-2,0,-1
68003272986,-1,-2,1,-2,-1,-1,-2,1
68003272986,-1,-2,-1,-1,0,-1,0,-1
68003286674,-1,-2,1,1,-1,-1,-1,1
68003286674,-1,-1,-1,-3,0,0,-1,-2
