timestamp,emg1,emg2,emg3,emg4,emg5,emg6,emg7,emg8
67879119186,0,-1,-1,-1,-1,-2,-3,-1
67879119186,0,0,-1,-1,0,0,1,-1
67879119858,-2,0,-1,-2,1,1,-1,-2
67879119858,-2,-1,-2,-1,0,1,1,1
67879120730,0,0,-1,-1,-4,-2,-2,-1
67879120730,0,-2,0,0,2,1,2,0
67879121442,-1,-2,-3,-3,-5,-5,-1,-2
67879121442,-2,-1,1,-3,-5,-4,-3,-2
67879132161,-2,-1,-2,-1,-1,-1,-2,-1
67879132161,-1,-5,-3,-5,-3,-2,-4,-2
67879140761,-1,-2,0,2,-4,-2,-1,0
67879140761,0,0,2,-1,4,0,-1,-1
67879148517,-2,-2,-1,-1,-1,-2,-1,-2
67879148517,-2,0,-1,7,4,1,0,-1
67879162241,0,-1,0,-5,0,3,2,2
67879162241,-2,0,-2,-3,-2,-3,-3,-1
67879173693,0,-1,0,3,-3,-2,-2,-1
67879173693,-2,-2,-3,-1,-1,-5,-5,-3
67879177165,1,-1,-1,3,2,2,-1,-1
67879177165,0,1,-1,-4,2,2,-1,-1
67879192261,-1,1,-1,-4,1,0,2,-1
67879192261,1,0,-3,-1,-2,0,1,0
67879200656,-2,-5,1,0,1,-2,0,-2
67879200656,-2,0,3,3,1,-1,-1,-1
67879240260,0,0,-2,-3,-7,-4,-3,-2
67879240260,-1,-1,-1,-1,-3,1,1,-2
67879241274,0,0,-1,-2,-1,-2,-3,-2
67879241274,-1,-1,-1,0,1,2,1,0
67879241984,-2,0,-2,0,-1,0,-1,-1
67879241984,0,-3,-3,-2,-3,-3,-5,-2
67879245151,0,-2,0,2,-2,2,1,-1
67879245151,0,0,0,-2,0,1,0,-1
67879251858,0,-2,-1,1,0,-1,-1,0
67879251858,-2,-2,5,-2,-4,-4,-3,-3
67879259603,-3,-4,-7,-3,-2,-2,-1,-2
67879259603,0,-1,0,1,6,4,4,2
67879268301,-1,0,-7,-4,-3,1,1,1
67879268301,0,0,1,2,1,1,0,0
67879281993,-2,-3,-10,-9,-4,-2,-4,-3
67879281993,-4,1,-1,-2,-6,-5,-4,-3
67879290980,1,0,0,1,4,1,2,-1
67879290980,-4,-2,1,-1,0,-2,0,-1
67879296912,0,2,4,3,2,2,-1,1
67879296912,0,-3,-2,-2,-5,-4,-3,-2
67879311818,0,-2,0,1,1,2,1,-1
67879311818,0,2,-6,-2,-4,-4,-2,-1
67879319356,-1,-3,2,1,0,1,0,0
67879319356,2,2,0,-1,-2,0,-3,1
67879328264,-3,-3,-1,1,2,3,5,-1
67879328264,-1,-1,-2,-1,1,-1,-2,1
67879350818,-3,-3,1,-6,-4,-2,0,-2
67879350818,-2,-3,-8,-3,2,-3,0,-2
67879352281,-1,1,10,5,-2,-4,-5,-3
67879352281,0,0,-8,-5,1,6,3,1
67879357034,-2,0,-2,0,-4,-4,-2,-1
67879357034,0,-2,-2,-2,-5,-4,-5,-2
67879373467,0,-1,-1,0,3,3,2,2
67879373467,0,-1,0,0,-4,-3,-3,-1
67879379694,-1,1,0,1,4,2,1,-1
67879379694,0,0,-1,-1,0,0,0,-2
67879395885,0,1,-4,-4,-5,-6,-5,-2
67879395885,-2,-1,2,1,-2,-1,-2,-2
67879401916,2,-1,-1,-2,-2,-2,-3,0
67879401916,-2,-1,3,2,-1,-1,-1,-1
67879419084,1,0,-1,-2,0,-1,-1,0
67879419084,-3,-6,-1,-2,-4,-3,-2,-2
67879420051,-1,0,-2,0,3,0,-1,-1
67879420051,-1,0,1,2,-1,1,0,0
67879431868,0,1,-1,-3,-6,-2,-2,-1
67879431868,-1,-1,-4,-2,0,-3,-2,-2
67879439319,0,2,3,3,1,1,2,2
67879439319,-1,-3,0,-1,2,1,0,-1
67879448336,-1,-2,-2,-3,-2,0,-2,-1
67879448336,-1,-2,0,0,2,1,0,-2
67879462063,0,-2,-1,-2,-6,-3,-1,-3
67879462063,-1,2,0,-3,-1,-4,-5,-1
67879470817,-1,-1,-3,-1,2,2,2,0
67879470817,-1,1,4,4,5,2,0,1
67879476848,1,1,1,3,-1,-1,-2,-1
67879476848,0,-3,-6,-3,-2,-2,0,0
67879492014,-3,-1,2,0,-2,-5,-4,-4
67879492014,0,1,-2,0,-3,-3,-1,2
67879499320,-2,0,2,0,5,3,3,-1
67879499320,0,0,3,0,-3,-4,-4,-2
67879508284,-1,-3,-1,2,3,3,0,1
67879508284,-2,-4,0,-2,-5,-3,-2,-3
67879522038,0,-1,-4,-5,-4,-4,-2,0
67879522038,-1,-1,-3,0,-1,0,0,0
67879530910,-2,-4,1,-2,-1,-1,-1,-2
67879530910,-1,1,-2,-2,-2,1,-1,-1
67879537020,-2,-2,-2,-1,-1,-4,-1,-2
67879537020,-2,-4,-5,-3,-1,0,0,-2
67879560033,-1,1,-1,-3,-4,-6,-5,-1
67879560033,0,0,0,-1,2,1,0,0
67879560732,-1,0,4,-1,-6,-3,-3,-1
67879560732,-1,0,-9,-5,1,-1,-2,0
67879568327,-3,-2,4,-1,-3,-3,-2,-2
67879568327,0,-2,-15,-5,2,1,0,0
67879582000,0,0,-4,-1,-4,-2,-2,0
67879582000,0,-2,-1,0,2,1,2,0
67879590855,-3,-2,-5,0,-4,-1,1,0
67879590855,0,-2,0,2,-3,-1,-2,-1
67879605131,-1,-1,4,-5,-2,-3,0,0
67879605131,-4,-5,3,0,-3,-2,-3,-1
67879611874,1,2,-2,0,-1,-1,-2,-1
67879611874,0,-2,2,1,0,0,0,-1
67879619347,-1,-2,6,2,-5,-3,-4,-3
67879619347,1,2,-6,0,3,1,2,1
67879628428,-1,-1,-8,-6,-5,-3,-4,-3
67879628428,-2,0,-1,0,2,1,3,-1
67879641971,-1,-2,-2,1,1,1,0,0
67879641971,-1,-2,2,-3,-4,-2,-3,-3
67879650875,-1,-3,-1,1,2,2,0,-1
67879650875,-2,2,0,-3,-5,-4,-3,0
67879665096,0,2,1,0,2,-3,-2,-1
67879665096,-1,0,-3,0,-1,-2,-1,-1
67879671992,-1,-4,-14,-11,-5,0,-1,-3
67879671992,1,1,10,6,4,-4,-5,-2
67879679356,-2,-3,-9,-9,0,1,-1,-1
67879679356,-1,-1,-2,-4,-6,0,1,-1
67879689138,0,-2,3,5,5,2,1,1
67879689138,0,0,1,-4,-7,-4,-1,-1
67879701906,-1,1,-3,-2,-4,-3,-2,0
67879701906,-1,3,-1,-5,-4,0,2,0
67879718377,-1,1,5,0,0,-2,-2,0
67879718377,-1,3,12,9,8,3,0,-1
67879725040,1,-1,-7,-7,-2,-2,-3,0
67879725040,-2,-3,2,1,2,1,2,-1
67879731979,0,1,3,-5,-4,-4,-5,-1
67879731979,0,-2,-8,6,11,2,2,1
67879739293,0,-1,3,2,-1,-1,0,-2
67879739293,-1,-1,0,2,-2,-3,-3,-1
67879748274,-1,-2,2,-5,-2,-2,-1,-1
67879748274,-1,-1,-4,-5,-6,0,-3,-1
67879761866,-1,-1,-1,-2,-1,0,1,-1
67879761866,-2,-1,14,6,3,1,1,0
67879770768,0,1,11,4,2,2,-1,1
67879770768,-2,-7,-22,-16,-10,-5,-4,-3
67879785025,-3,-1,-7,1,0,1,1,-2
67879785025,1,2,-2,-4,1,-1,-3,-1
67879791777,-2,0,5,0,-4,-7,-6,-3
67879791777,-1,-1,-3,0,3,5,3,0
67879799267,1,-1,6,2,2,0,-1,0
67879799267,0,2,3,-2,-5,-4,-3,-2
67879808320,0,-3,-11,-1,-1,-2,-1,-1
67879808320,-2,-1,2,-4,-8,-7,-4,-2
67879821844,-4,-3,-1,4,7,4,3,0
67879821844,0,2,1,1,0,-1,-1,-1
67879830805,-2,-3,-14,-1,0,0,1,2
67879830805,-1,1,14,0,-4,-2,-2,-2
67879844978,-4,-1,-3,-4,-6,-3,-2,-1
67879844978,5,-3,-5,-1,3,-1,-1,-1
67879851866,-1,-1,-3,1,2,1,2,-1
67879851866,-2,-2,0,0,0,1,0,-2
67879859349,0,3,11,-1,-2,-2,-3,6
67879859349,-5,3,-17,5,-3,-1,-3,-3
67879868252,-4,-12,-5,-2,-4,-2,0,-7
67879868252,6,2,-8,-7,-1,-2,0,-1
67879881838,-8,-4,-6,-2,6,6,5,-1
67879881838,6,-4,2,-4,-3,-1,-3,1
67879890795,2,7,9,2,0,-1,-1,1
67879890795,-4,-1,-1,-4,-5,-3,-5,-3
67879905064,0,-2,4,4,0,-3,-3,-5
67879905064,0,-2,-1,-4,1,2,0,-2
67879912037,-11,2,-17,-6,1,1,1,-1
67879912037,-2,0,13,7,-1,-1,0,-3
67879919555,7,0,-11,-7,-6,-3,-5,1
67879919555,-8,1,11,2,0,-1,-2,0
67879934517,0,-4,0,1,-1,-1,-1,1
67879934517,4,1,-4,-6,1,-1,-3,7
67879941895,-2,1,4,8,1,1,2,0
67879941895,1,3,3,0,-2,-4,-2,4
67879950849,-2,-21,-17,1,-1,0,-3,-18
67879950849,-1,9,-3,-17,-3,-2,-1,-1
67879965162,17,1,18,10,-1,-2,-7,-3
67879965162,-57,-13,-17,3,1,2,12,4
67879971788,17,12,-21,-15,-8,-6,-2,1
67879971788,20,3,15,16,12,9,4,3
67879979404,-47,-15,-39,7,1,-2,0,-1
67879979404,52,18,30,-24,-3,-1,-2,-12
67879994587,-42,-10,7,12,-1,-2,-2,29
67879994587,-5,-21,-34,-18,-10,-7,-5,-38
67880001829,-1,8,15,4,-1,-2,-4,10
67880001829,12,-10,-9,27,-1,-5,2,7
67880010850,-10,14,7,-26,3,8,-4,-24
67880010850,34,0,12,24,1,-2,0,22
67880025215,1,-3,-13,-13,-3,1,7,19
67880025215,-23,-2,5,0,-3,-2,-15,-29
67880032010,10,-1,3,-1,-6,-6,-3,-6
67880032010,3,3,-3,-3,8,3,8,16
67880039418,12,-1,4,3,-1,-1,-3,-4
67880039418,-2,-7,-16,-24,-6,-4,1,5
67880054552,3,8,6,9,3,-1,-1,6
67880054552,-16,2,-2,-4,-5,-2,-5,-5
67880061836,5,2,-2,9,1,-1,-3,-15
67880061836,-16,-3,5,-13,-1,-1,-1,3
67880070879,0,1,18,27,4,4,4,10
67880070879,-9,-6,-14,-10,-5,-4,-4,-5
67880085179,8,0,8,-15,-4,-1,2,8
67880085179,-4,-3,-4,22,2,0,-5,-26
67880091972,13,-3,-9,-34,-7,-5,-2,2
67880091972,-17,-1,15,18,2,-1,2,2
67880099583,10,-4,-10,11,-6,-7,-13,-17
67880099583,0,4,15,-29,-3,1,2,5
67880114488,4,-8,-10,4,5,-8,-3,-15
67880114488,-2,4,8,-8,-1,9,-5,17
67880122074,-10,-4,-1,-4,2,0,-2,-8
67880122074,0,-2,-6,12,-3,-1,-1,5
67880130948,30,7,6,-4,-4,0,-4,-1
67880130948,-36,-7,1,6,-3,-5,-2,-6
67880145286,-6,2,-5,-6,-1,-3,1,-1
67880145286,7,4,-10,-5,-6,-2,-1,6
67880152013,-8,3,10,21,4,0,-2,-4
67880152013,6,0,-5,-16,2,1,5,25
67880159606,-14,-4,-8,-31,-10,-2,-3,-65
67880159606,13,1,6,23,10,-1,-1,9
67880174587,-10,1,-2,2,4,3,2,-2
67880174587,-2,-3,-3,5,-4,-7,-4,-9
67880182092,17,0,5,-8,-6,-2,-1,10
67880182092,-3,-2,-6,-21,-2,3,3,4
67880190913,-8,3,4,-2,-1,1,1,-2
67880190913,-1,-17,-18,4,-1,-1,2,-16
67880204353,16,2,5,4,0,-1,-3,19
67880204353,1,-1,-5,5,-1,-3,-4,-7
67880213319,-3,-5,4,4,-3,-2,2,10
67880213319,0,6,5,-4,-3,-1,-4,-6
67880227777,5,2,7,2,0,-1,4,9
67880227777,8,-5,-5,7,-4,-3,-1,2
67880234532,-21,-1,-1,5,-4,-4,-2,0
67880234532,-10,1,-1,-20,-2,3,3,-13
67880250747,0,-2,-3,-2,13,3,1,-6
67880250747,3,-2,-1,0,3,2,3,7
67880252273,4,-2,2,7,-1,-1,-1,2
67880252273,2,9,7,9,1,-5,-1,-17
67880264350,-1,-9,-2,3,-3,-2,1,12
67880264350,-7,-6,-10,-6,-2,-4,-2,-6
67880273401,5,1,-1,-10,-5,1,-9,-3
67880273401,-2,-4,-4,3,-3,-2,-1,0
67880287760,-2,3,1,-6,-4,1,-5,8
67880287760,-4,1,0,-6,-2,-3,6,2
67880294446,-6,-4,-3,-4,-4,-2,-4,-4
67880294446,4,-1,-2,-3,-2,-1,-2,7
67880310911,-9,2,-1,0,-8,-3,0,-1
67880310911,4,-4,-3,12,11,1,-6,4
67880312295,-1,-4,-1,-5,-2,0,2,1
67880312295,7,0,4,1,-1,0,0,-3
67880324577,-22,-1,-3,3,0,0,1,1
67880324577,-12,-4,0,-5,1,0,-2,-6
67880333345,11,2,0,-13,4,4,6,6
67880333345,6,3,-1,4,0,-1,-2,4
67880347761,0,-2,-4,0,-5,-4,-4,-2
67880347761,-2,1,2,-3,-7,0,-1,0
67880354456,-3,-1,1,4,1,-2,0,-3
67880354456,4,-1,-1,-3,-3,-5,-4,2
67880370944,0,1,2,-1,0,-1,2,2
67880370944,-1,-3,1,1,3,-1,-2,-3
67880372329,0,-3,-4,-1,1,-1,3,1
67880372329,-8,0,-4,-2,-2,0,-2,-2
67880384569,12,0,1,0,1,2,1,-1
67880384569,2,0,5,0,-3,-2,-2,0
67880393380,-3,-6,-7,-3,-4,-5,-1,-6
67880393380,-10,-2,-4,-1,0,-1,-1,-2
67880407722,-4,-1,-4,1,3,-2,1,-1
67880407722,4,1,-2,-1,-4,-1,-3,3
67880414558,-2,0,1,0,0,-2,1,0
67880414558,2,-4,-2,-1,-1,0,0,-1
67880430941,0,-4,-5,1,-1,-1,-1,0
67880430941,0,1,-3,-2,-3,-1,2,0
67880432325,2,3,3,1,-5,-2,-2,-1
67880432325,1,0,-2,0,-3,-4,-1,-1
67880444659,-3,1,1,-2,-1,0,-2,-3
67880444659,-1,-2,-1,-2,-1,-2,0,0
67880453531,0,-2,-2,1,2,3,1,-4
67880453531,8,-2,2,0,-1,-1,0,0
67880467776,-4,1,-1,1,4,3,0,-2
67880467776,-2,1,0,-1,-4,-1,-3,-5
67880474568,0,-2,-3,-4,-3,-5,-2,1
67880474568,-2,0,0,2,1,0,-1,-2
67880490953,0,-2,0,-1,-1,-3,-1,-2
67880490953,0,-1,-1,-2,-1,-2,-2,2
67880492211,0,1,0,1,-3,1,-2,0
67880492211,-1,-1,-1,-1,-1,0,0,2
67880505118,5,1,-3,-1,-2,-2,0,7
67880505118,-1,-2,0,-1,-1,1,-1,-1
67880512093,-5,-2,-2,-1,-2,-1,-2,-1
67880512093,-4,-3,-2,-1,1,3,2,-13
67880527758,-1,-1,0,0,-3,-4,-3,4
67880527758,1,-2,-1,-1,-2,1,3,-2
67880534538,7,0,-2,-1,-1,-1,-2,3
67880534538,-13,-2,-1,0,1,1,-2,-3
67880550767,-6,1,-2,1,0,0,-1,-4
67880550767,3,-3,0,-3,-3,-5,-5,-5
67880552341,1,0,0,1,2,4,2,0
67880552341,3,-1,-1,-2,-2,-3,-1,4
67880564601,-2,-3,6,1,1,1,1,-7
67880564601,-3,-1,-15,0,0,-1,-4,-1
67880573335,-9,-2,0,-1,-1,-2,-2,-2
67880573335,4,1,-1,-1,-1,-1,-1,2
67880587718,-5,-1,-1,-2,-3,-2,-1,2
67880587718,-4,0,1,-1,-2,-1,1,2
67880594537,1,0,-1,1,0,2,-1,-15
67880594537,-7,-1,-3,-3,-4,-4,-1,2
67880610720,-1,0,-1,-2,0,-2,-2,-3
67880610720,0,2,3,1,3,3,2,-5
67880612306,6,0,0,1,-1,0,2,12
67880612306,-11,0,0,-1,-2,-2,-4,-26
67880624528,0,-2,-2,-3,-4,0,0,0
67880624528,-4,-1,0,-3,-2,-3,-1,-5
67880633405,-7,-4,-2,-2,1,1,0,11
67880633405,15,1,2,1,2,1,0,9
67880647653,-3,-3,0,1,-1,0,1,1
67880647653,0,0,0,0,-2,1,0,-2
67880654405,-3,0,-1,-4,-4,-5,-1,-4
67880654405,-2,-1,-2,-2,-2,-3,-2,0
67880670902,5,1,-2,-1,0,0,0,2
67880670902,-8,-1,1,1,0,1,-1,3
67880672306,-7,-1,-2,0,0,-1,-1,-5
67880672306,11,0,-1,-1,-2,-1,-1,6
67880684499,-1,-1,-1,0,-2,-2,-1,0
67880684499,1,0,-1,-1,0,-2,0,2
67880693359,-2,-2,-3,0,1,2,0,-2
67880693359,-5,-2,-1,2,0,1,0,-6
67880707793,3,-1,-1,-2,-2,-1,0,-1
67880707793,-4,-1,-1,-2,-5,-4,1,0
67880714652,5,-1,0,-2,-4,-2,-1,-1
67880714652,0,-2,-1,-2,0,-3,0,3
67880730880,-4,-2,-1,0,1,1,-1,0
67880730880,-1,-2,1,-1,-2,-2,-3,-3
67880732298,0,-1,-1,-3,-3,-3,-2,-5
67880732298,-3,-1,0,-1,-1,-2,-2,2
67880744596,-5,-1,-1,1,0,-1,0,-2
67880744596,1,-1,0,0,2,0,0,-2
67880753402,6,-1,-1,0,-2,-4,-3,-4
67880753402,-8,-2,0,-3,-2,0,-2,3
67880767783,5,-1,-3,-1,-1,-3,-2,9
67880767783,-7,1,0,-1,-1,1,0,-8
67880774518,11,-2,0,-1,0,-1,-1,2
67880774518,0,-1,-2,0,-2,-4,-2,-1
67880790921,-2,1,-2,-1,-1,0,0,0
67880790921,0,0,-1,-1,0,-1,0,3
67880792347,-6,-1,0,-2,-1,-1,0,-3
67880792347,-1,0,-2,-2,0,0,-1,0
67880804570,-1,-1,-1,-1,-2,-1,-1,-4
67880804570,-1,-3,-1,-1,-1,-4,-1,0
67880813400,-2,0,0,1,1,0,-1,-2
67880813400,1,-1,0,-1,-2,-1,-1,-1
67880827802,1,0,-2,-1,2,1,1,-4
67880827802,1,-1,-1,-1,1,2,1,-1
67880834526,-1,-2,-1,0,-3,-2,-1,5
67880834526,1,0,-1,-1,-2,-4,-1,-2
67880850029,-6,-3,0,-1,-1,0,-1,-7
67880850029,1,-1,-1,-1,-4,-1,-2,1
67880856943,-1,0,-1,1,2,1,0,1
67880856943,-4,0,0,2,-1,-2,-2,0
67880864408,-5,-1,-2,-3,-3,-1,-2,-5
67880864408,1,1,0,-2,-3,-1,-2,-2
67880873344,-1,0,-2,0,-1,0,1,-2
67880873344,1,-1,-1,-2,-3,-1,0,0
67880887621,-1,-3,-1,-1,-2,-2,-3,0
67880887621,-1,-2,-1,-2,0,-1,-1,0
67880894401,3,0,-1,0,-1,-1,-2,-4
67880894401,-3,-2,-1,0,2,1,1,1
67880910252,0,1,0,0,0,-2,-1,0
67880910252,0,-1,-1,-2,0,-2,-2,0
67880916995,0,0,-2,-4,-2,-2,0,2
67880916995,-1,-1,-2,-2,0,3,-1,-3
67880932780,0,0,-1,1,0,2,1,0
67880932780,-3,-3,0,1,-1,1,-1,0
67880933293,-3,-1,-1,0,-2,-2,0,-2
67880933293,-3,-2,-1,-4,1,-1,-1,-2
67880948359,-3,-2,-2,-2,-2,-2,-1,-1
67880948359,2,-1,-1,0,-1,-3,-1,2
67880954490,-1,-1,0,-1,-2,-1,-1,-4
67880954490,2,0,-2,0,-1,0,0,0
67880969528,2,0,0,0,1,0,-1,1
67880969528,0,-2,-2,-2,1,1,1,5
67880977035,-3,-1,-1,0,-1,-1,-4,-4
67880977035,-2,-1,-1,-2,-4,-2,-1,1
67880992665,0,0,0,-1,-1,-1,-1,-6
67880992665,0,0,-1,0,-3,-2,-1,-4
67880993332,-14,-3,-3,-2,1,-2,-1,-8
67880993332,8,0,-1,-1,-1,-3,-3,-1
67881008330,2,-2,0,-1,0,0,1,2
67881008330,-1,0,-1,-1,-1,-4,-2,4
67881014535,-1,-1,-1,-2,-1,-1,0,-5
67881014535,-5,-2,-2,-1,1,4,1,-1
67881029544,-5,-1,-1,0,-1,-4,-1,-2
67881029544,3,0,1,1,0,-2,-1,5
67881037029,-4,-1,-1,-1,-1,-5,-3,-5
67881037029,-1,1,-1,-1,-5,-3,-2,-4
67881052688,0,-1,-2,-3,-4,-2,-1,2
67881052688,-4,-1,-2,1,0,1,1,-3
67881053284,1,0,-1,0,0,-1,1,4
67881053284,0,-2,-1,-1,1,-3,-3,-4
67881068367,-2,-2,0,-1,-1,-1,0,-1
67881068367,0,-1,-2,-3,-2,-3,-5,-4
67881074475,-12,-1,-2,1,2,3,0,-10
67881074475,5,1,0,0,1,2,0,8
67881089496,13,-2,-3,-2,-3,-1,-2,-1
67881089496,-5,0,0,-3,-2,-3,-3,-6
67881096873,9,-1,-2,-1,-3,0,-2,8
67881096873,-4,-3,0,-1,-1,0,3,0
67881112631,-13,-1,0,0,0,0,-6,-13
67881112631,0,-2,-2,0,-2,-2,0,-1
67881113372,0,1,-2,-3,-4,-3,-2,3
67881113372,-4,-1,-2,0,1,2,1,-3
67881128442,0,0,0,-1,0,-1,0,2
67881128442,-1,-1,-2,0,-1,-2,-1,0
67881134454,-2,-1,2,-1,-2,-3,-1,0
67881134454,1,-1,-2,-1,-2,-1,-3,-1
67881149625,-3,-2,0,0,0,0,1,1
67881149625,-1,-1,-1,-2,-1,1,-1,-4
67881156899,3,-2,-2,-2,-3,-2,0,5
67881156899,-5,-1,-1,-3,-2,-1,-3,-8
67881172608,3,-1,0,1,4,2,1,2
67881172608,-1,0,-2,0,-4,-2,0,-3
67881173333,-1,-1,0,0,-1,-2,1,-1
67881173333,-2,-1,-3,-2,-3,-4,-3,0
67881188413,-3,0,-1,-1,-2,-2,-1,-1
67881188413,-2,-2,-1,-3,-1,-1,0,2
67881194594,-1,1,-2,-2,1,2,-3,-2
67881194594,-3,-1,0,0,-2,-1,1,0
67881209580,-1,0,-2,-2,-1,-1,-2,-1
67881209580,1,0,-2,-1,-1,-1,0,0
67881216906,1,-3,1,0,2,1,0,1
67881216906,-11,-2,-1,0,-1,-1,-2,-8
