timestamp,emg1,emg2,emg3,emg4,emg5,emg6,emg7,emg8
1512715198596960,-3,0,-2,-1,-1,0,-1,-2
1512715198596960,1,1,-2,1,1,-1,-3,0
1512715198597961,0,4,0,-2,-3,-1,-2,0
1512715198597961,-1,0,-2,-2,-1,-1,-1,-1
1512715198604995,-1,-5,0,-3,-1,0,5,0
1512715198604995,-1,-4,-1,1,-2,1,-7,-1
1512715198604995,0,-2,-2,-2,-4,-2,-3,5
1512715198604995,-1,-3,-3,-1,-3,-1,-1,-6
1512715198611977,0,9,1,-1,-3,-2,-1,1
1512715198611977,-1,-11,-1,0,-2,-1,0,-1
1512715198619961,1,2,-1,0,-2,0,2,-3
1512715198619961,-1,0,-1,-1,-1,-1,-6,2
1512715198625965,-2,-8,-3,0,-1,-1,-2,0
1512715198625965,0,0,1,-4,-3,-5,-7,-4
1512715198640963,-1,-1,1,1,4,4,11,1
1512715198640963,3,5,1,0,2,-1,-2,-2
1512715198649963,-1,-5,-2,-1,0,1,1,3
1512715198649963,0,0,-1,-2,0,-1,2,1
1512715198655966,-3,-5,-5,1,-2,-2,2,-3
1512715198655966,-3,-2,-2,-4,-1,2,5,1
1512715198671967,1,2,0,-1,-2,-3,-3,-4
1512715198671967,-2,-6,0,-1,-2,-1,-1,-3
1512715198679969,1,5,2,0,1,-3,-3,1
1512715198679969,-2,-7,-1,0,-1,0,2,-1
1512715198709970,1,6,2,0,0,0,-4,0
1512715198709970,-1,-6,-4,-2,-1,-2,1,-2
1512715198716967,2,8,3,-2,-2,-1,0,3
1512715198716967,0,-2,-1,-2,-1,0,-2,-1
1512715198717968,0,-3,-1,-1,-1,-1,-1,-1
1512715198717968,-1,-1,4,1,-1,2,3,2
1512715198718986,-1,-3,-5,-1,4,-2,-3,-4
1512715198718986,-1,-4,0,1,-2,2,1,2
1512715198731972,-2,0,-3,-2,-3,-1,0,-3
1512715198731972,0,0,0,0,0,0,-3,-1
1512715198737973,-4,-7,-4,-2,-4,-2,-2,-3
1512715198737973,-1,5,0,-2,-1,-4,-1,-3
1512715198745970,-4,-1,0,-2,0,0,-2,0
1512715198745970,2,-9,-5,-4,-4,-4,-3,-2
1512715198760970,2,8,1,-2,-4,-5,-7,-2
1512715198760970,-3,-6,-1,3,-1,0,-3,-4
1512715198768970,-2,-1,0,-2,-3,-2,-2,-2
1512715198768970,1,4,2,0,2,-2,-2,-2
1512715198775973,-1,-6,-2,-1,0,1,4,-1
1512715198775973,2,6,-3,-3,-1,-2,-5,0
1512715198791973,-3,-5,-7,-2,-3,-3,-2,-4
1512715198791973,-1,-6,-2,1,-2,-3,-6,-1
1512715198798973,-3,-1,-1,2,0,3,1,-4
1512715198798973,-1,0,-4,-3,-3,-3,2,1
1512715198805973,-1,0,-2,-2,0,2,0,0
1512715198805973,-2,4,1,-3,-10,-1,0,-2
1512715198820973,2,-1,3,6,13,5,2,3
1512715198820973,0,-7,-1,0,1,0,0,-2
1512715198828977,0,-3,0,-1,-1,0,-2,0
1512715198828977,-2,0,-4,-5,-4,-5,-1,-5
1512715198835978,-1,11,0,2,-8,-2,-2,1
1512715198835978,0,1,-1,-1,0,-1,1,1
1512715198851976,-4,-11,-1,3,8,3,2,-3
1512715198851976,3,11,4,-1,2,-1,-5,1
1512715198857980,-1,-8,-6,-5,-6,-4,-1,-1
1512715198857980,-2,-2,1,1,3,0,0,-2
1512715198865978,0,3,1,-2,-8,-5,-2,-4
1512715198865978,-1,2,-1,-4,-8,-3,-1,0
1512715198880980,-1,0,5,5,5,3,-1,-3
1512715198880980,-1,-6,-3,-2,-2,2,-4,-3
1512715198888978,-1,-3,-2,-1,-2,-7,-5,5
1512715198888978,-3,0,2,4,9,4,1,-2
1512715198895977,0,-2,-4,-5,-2,-3,0,-1
1512715198895977,0,2,0,1,-1,-3,-6,1
1512715198910982,-3,-4,0,1,1,-1,-3,-3
1512715198910982,-3,-4,-10,-3,-2,0,0,0
1512715198917980,-3,-1,0,0,4,0,-5,-4
1512715198917980,1,1,4,-1,-3,0,6,1
1512715198925984,3,-1,-2,1,1,1,2,-2
1512715198925984,-2,4,-2,3,1,-2,0,2
1512715198940980,-2,3,-2,-3,-4,0,2,0
1512715198940980,-2,-8,-6,-3,-1,-2,-4,-3
1512715198948993,1,5,2,-4,-3,-1,-3,3
1512715198948993,-3,-4,-4,2,6,1,0,-5
1512715198956982,-2,-9,-1,-8,-22,-7,-3,-1
1512715198956982,-1,11,4,3,1,-1,-1,-3
1512715198972023,-1,8,4,4,3,2,2,-3
1512715198972023,-2,-11,-8,-9,-23,-8,-1,-1
1512715198978986,2,3,0,18,62,12,2,3
1512715198978986,-2,-5,-2,-1,-6,2,-4,-2
1512715198985985,0,-6,0,0,-1,-3,-3,-1
1512715198985985,-6,-12,5,-3,-7,-5,-2,-2
1512715199000992,-1,11,0,-9,-18,-8,-5,-5
1512715199000992,-3,-3,-2,-1,-1,-4,-3,-6
1512715199008990,-3,-8,-7,-4,-4,-5,2,-3
1512715199008990,-3,-9,-2,-1,-2,2,0,-2
1512715199015993,0,-1,2,-4,-15,-9,0,4
1512715199015993,0,15,-1,1,8,0,-7,-5
1512715199031992,0,-17,-5,-3,-4,3,4,3
1512715199031992,2,21,-3,1,5,-1,-1,-1
1512715199037990,-4,-25,-1,-1,-8,0,-1,-4
1512715199037990,0,0,-2,-3,8,-3,-3,2
1512715199045996,1,16,-1,-3,-9,-1,-1,-5
1512715199045996,4,-3,4,7,24,5,3,4
1512715199061129,0,5,-7,-4,-7,-4,-2,-1
1512715199061129,0,-9,9,-2,-17,-6,1,0
1512715199068994,-2,2,-2,2,31,9,-2,-5
1512715199068994,-1,-5,-1,1,0,0,1,-1
1512715199082995,-2,-5,-7,-6,-6,0,-2,-2
1512715199082995,1,2,-2,-1,2,-1,-1,0
1512715199090999,0,2,0,-1,-6,-5,-5,0
1512715199090999,2,18,7,5,-2,-1,5,-1
1512715199097995,4,-1,4,-4,1,5,-2,1
1512715199097995,-8,-36,-15,-7,-9,-1,-1,-5
1512715199113995,1,19,1,-3,-3,-2,-1,1
1512715199113995,0,-3,-1,-4,-6,-3,-8,-4
1512715199121000,1,3,2,1,-3,-3,2,3
1512715199121000,3,7,10,3,4,2,3,0
1512715199129000,-5,-10,-2,-1,-4,-3,-2,-4
1512715199129000,-4,-11,-2,-5,0,0,-3,-2
1512715199142998,2,7,-1,5,-9,-3,-1,-1
1512715199142998,-3,-8,-2,-7,11,-3,-4,-3
1512715199151031,2,3,-3,7,-7,2,2,2
1512715199151031,0,1,2,2,9,7,4,0
1512715199158003,0,4,0,-2,-2,-2,-1,0
1512715199158003,-4,0,-6,0,-2,0,1,0
1512715199165999,0,-11,3,-1,-3,-2,0,0
1512715199165999,1,6,-4,-3,-3,-4,-2,0
1512715199183002,-3,-16,-3,-1,1,-1,-1,-2
1512715199183002,-3,4,2,1,-2,2,3,-2
1512715199188999,-1,4,0,-3,0,-3,-1,-1
1512715199188999,-2,-2,-4,1,-2,-1,-4,-4
1512715199203006,-4,4,-1,-3,1,-2,-1,0
1512715199203006,3,4,-3,1,-3,-3,0,3
1512715199211007,-3,-17,1,0,-8,-4,-4,-3
1512715199211007,0,8,-2,-3,5,4,1,3
1512715199218009,-5,-6,0,3,1,0,0,-5
1512715199218009,5,0,1,-5,-14,-6,-4,3
1512715199226004,-3,-9,-5,-2,3,-5,-7,-3
1512715199226004,-10,1,5,0,-16,-9,-3,-13
1512715199241011,4,-11,-2,4,22,17,10,6
1512715199241011,-4,5,-5,2,2,2,-2,-7
1512715199249007,5,11,-1,-4,1,0,1,3
1512715199249007,2,0,2,-7,-11,-7,-6,0
1512715199263010,-4,3,-1,1,-2,-10,-6,-5
1512715199263010,3,4,2,8,3,3,3,2
1512715199271010,-3,-11,-4,0,-5,-3,1,-2
1512715199271010,-4,-3,-1,-6,-2,-1,0,-3
1512715199278011,-2,2,-10,-9,-16,-7,-4,-2
1512715199278011,3,2,5,6,27,8,4,4
1512715199295008,0,14,2,-2,1,0,-1,-1
1512715199295008,2,-3,-4,0,2,2,-2,3
1512715199301006,-2,-18,-1,-4,-9,-1,-1,-3
1512715199301006,2,4,-5,-3,-13,-10,-5,-2
1512715199316011,2,11,1,-1,2,3,0,2
1512715199316011,-1,-20,-5,2,5,-1,0,-4
1512715199323009,2,15,2,-1,2,4,0,2
1512715199323009,-5,-7,3,-1,-2,1,0,-2
1512715199332010,5,2,1,1,-2,-4,-2,1
1512715199332010,-2,-6,2,-2,1,-1,1,-2
1512715199338011,-1,-1,0,1,0,-5,-4,-5
1512715199338011,-2,-9,-13,-2,-5,1,-1,1
1512715199355012,-8,-2,-6,-18,-25,-8,-2,-4
1512715199355012,4,0,3,9,1,-1,3,5
1512715199361009,1,16,15,25,53,14,4,0
1512715199361009,1,11,2,-3,-5,-6,-3,-1
1512715199376012,1,-4,-1,5,10,6,1,-1
1512715199376012,-5,-17,-11,-9,-12,-4,-3,-1
1512715199383043,-4,2,-5,-8,-22,-7,-3,-2
1512715199383043,-5,1,0,-1,-5,-7,0,-7
1512715199392013,-1,-5,-9,-5,3,0,-27,1
1512715199392013,2,9,4,0,1,8,12,1
1512715199398052,-4,-26,-21,-7,-12,-5,-3,0
1512715199398052,-1,-2,11,0,-1,0,3,-1
1512715199415015,1,-8,-9,-2,-5,-8,-8,-3
1512715199415015,1,8,2,3,7,8,28,1
1512715199421019,1,4,-3,-1,-6,-4,-15,-1
1512715199421019,-11,-16,0,-1,-1,6,-4,-5
1512715199436152,7,9,8,1,0,-2,8,5
1512715199436152,-4,3,2,-2,3,-3,-10,-4
1512715199443017,5,6,-1,-6,-10,-4,7,2
1512715199443017,3,-11,0,1,-1,2,4,5
1512715199452018,0,16,-2,-1,4,1,2,-2
1512715199452018,-2,-7,9,-3,-12,-7,-8,-2
1512715199460020,-4,-4,-1,-5,-7,-5,-3,-2
1512715199460020,0,40,16,10,24,7,-6,-2
1512715199492023,-5,-46,-11,5,6,3,10,-1
1512715199492023,1,5,-2,3,13,3,-3,0
1512715199493033,-1,-14,-1,-3,-8,-4,-2,-3
1512715199493033,-1,2,-8,-6,-11,-7,2,1
1512715199496020,-1,14,4,-1,-3,-1,2,-2
1512715199496020,0,-1,-5,-2,-4,-3,-7,-1
1512715199503020,-1,5,5,0,-5,1,0,-1
1512715199503020,1,-14,-10,-5,-5,-2,-3,-1
1512715199512022,-7,-18,-1,-1,-3,0,0,-3
1512715199512022,4,2,-8,-4,-2,-4,-8,1
1512715199518024,-3,3,-1,-2,-8,0,-3,0
1512715199518024,4,-1,-12,-1,7,2,5,8
1512715199535025,3,10,29,3,-1,-3,-2,-2
1512715199535025,-2,-16,-7,-1,0,2,-3,-1
1512715199541023,2,10,5,-1,-7,-5,-2,1
1512715199541023,-2,-8,2,-3,2,-2,-4,-3
1512715199550025,-6,-6,-6,0,1,1,-1,-5
1512715199550025,0,16,7,10,-1,-1,1,-2
1512715199563023,-3,-15,-10,-8,-9,-1,0,-1
1512715199563023,4,10,5,-1,3,0,-1,0
1512715199572026,-2,-7,-4,-4,-3,-2,2,-4
1512715199572026,-3,-3,-1,0,7,3,-3,-2
1512715199578026,2,-2,3,3,4,0,2,0
1512715199578026,2,15,-2,-5,-10,-6,-3,-3
1512715199595027,-3,10,-1,1,0,-1,-1,3
1512715199595027,-2,-24,-9,-2,0,2,-1,1
1512715199601027,-2,-3,-4,-2,1,-1,-1,-1
1512715199601027,-7,-21,-2,1,-6,-4,-2,-4
1512715199610029,3,3,-2,-3,-1,1,1,2
1512715199610029,1,9,1,-2,-4,-5,-3,-2
1512715199623028,-3,-5,-4,-2,7,2,1,-2
1512715199623028,-3,-8,-11,-4,-4,-2,-2,-5
1512715199632030,-2,7,1,1,-3,-2,-1,-1
1512715199632030,-2,-12,12,2,-1,-5,-1,0
1512715199638030,1,9,6,2,1,-2,1,-2
1512715199638030,1,-2,-6,-1,-3,-1,-4,3
1512715199655030,0,-3,-2,0,2,1,-1,-2
1512715199655030,-2,0,-18,-7,-6,-4,-1,-1
1512715199661044,1,8,18,4,-1,4,0,1
1512715199661044,-3,-2,-2,-1,-3,-2,-2,0
1512715199670032,0,-5,-4,1,-2,1,0,-2
1512715199670032,1,7,0,-1,2,0,0,0
1512715199683033,-5,-2,-17,-5,-5,-4,0,-2
1512715199683033,-2,-8,3,-4,-8,-3,0,-2
1512715199692032,3,19,5,5,19,13,3,0
1512715199692032,-6,-16,4,-3,-4,-1,0,-5
1512715199706033,1,14,-4,-3,0,-1,-4,-3
1512715199706033,0,16,5,1,-2,-4,-2,-2
1512715199715035,-3,-23,-13,-3,-3,-4,1,-1
1512715199715035,-2,7,-2,-1,-1,3,-4,-1
1512715199730050,1,-14,11,-2,6,-2,-1,1
1512715199730050,-2,-6,-16,-4,-3,0,-1,-1
1512715199731034,-3,6,7,-5,-6,-1,-1,-4
1512715199731034,2,6,-2,0,-1,-1,-2,-2
1512715199744036,-5,-26,-9,-2,-5,-4,-3,-4
1512715199744036,6,26,17,1,-1,2,2,2
1512715199752035,-3,-15,-5,-2,-1,-5,-3,-1
1512715199752035,1,0,11,-2,-2,-2,-2,1
1512715199770038,-3,4,0,-2,2,1,-2,-2
1512715199770038,1,1,-6,-1,-2,-2,-2,-2
1512715199789039,-4,-2,-10,-2,-3,0,-2,-1
1512715199789039,3,10,4,1,0,-5,0,-2
1512715199791040,-3,-7,3,1,-2,1,0,-2
1512715199791040,0,-7,-6,-2,-7,-1,-2,0
1512715199791040,-4,-10,1,4,10,-2,-2,-4
1512715199791040,1,11,-3,-1,4,3,-1,2
1512715199803041,-2,-2,-21,-3,-1,1,2,-1
1512715199803041,-2,-17,-9,2,2,0,0,2
1512715199813040,2,39,18,-6,-11,-5,-2,-1
1512715199813040,-6,-24,2,-2,-2,-3,-2,-6
1512715199826053,2,16,-4,6,6,5,3,0
1512715199826053,4,0,0,-2,-1,0,1,2
1512715199835042,-2,-26,-15,-1,-7,-3,-4,0
1512715199835042,-4,0,-4,-1,0,-2,-2,2
1512715199850042,-1,3,6,-4,-4,-6,-2,0
1512715199850042,-4,-8,-3,-2,0,-1,-1,-4
1512715199851041,1,5,4,0,-6,-2,0,-1
1512715199851041,0,-6,-10,-3,1,1,-2,-2
1512715199863046,-2,-4,0,-1,-1,-2,-2,-1
1512715199863046,-1,-3,1,-1,0,-1,0,-3
1512715199872043,-2,-8,-1,-3,-1,1,1,1
1512715199872043,2,7,-4,-1,-4,-1,-1,2
1512715199895041,-3,-3,2,1,0,0,0,-2
1512715199895041,-1,0,-2,-3,-3,-3,-4,0
1512715199896045,0,6,-5,-4,-13,-8,0,-2
1512715199896045,-2,-6,-4,2,10,4,0,-3
1512715199918048,4,6,-4,0,4,2,-1,1
1512715199918048,-3,-5,11,-2,-5,-5,-4,-1
1512715199919061,-1,-7,-8,-2,-9,-7,-2,0
1512715199919061,-1,0,6,-5,-15,-12,-4,0
1512715199923044,1,5,-3,0,2,2,-1,-1
1512715199923044,-2,-15,1,1,5,2,0,1
1512715199932044,2,5,1,0,5,2,1,0
1512715199932044,0,-1,-2,-2,-3,0,1,1
1512715199946062,-1,1,-1,-3,-1,-4,-3,-2
1512715199946062,0,-7,-4,-1,-5,-3,3,1
1512715199955047,-3,-5,1,0,-1,-3,-5,-2
1512715199955047,0,2,-4,-1,-9,-5,-2,-2
1512715199973048,-2,-1,3,1,9,2,-1,-3
1512715199973048,0,0,-4,-2,-4,-2,-3,-1
1512715199973048,0,-6,-7,1,4,2,3,1
1512715199973048,5,14,9,0,-2,1,-1,-2
1512715199984049,-2,-5,12,-1,-7,-2,-1,0
1512715199984049,-1,1,-12,-2,4,-1,-1,0
1512715199999051,-1,3,-1,0,1,-1,-1,-1
1512715199999051,-4,-14,-8,0,8,7,1,-1
1512715200006049,6,2,-1,-1,-4,-2,0,0
1512715200006049,-1,11,5,-2,-10,-4,-2,-4
1512715200024054,0,-8,0,4,9,3,-1,1
1512715200024054,0,4,-12,1,8,5,-1,-1
1512715200030050,-6,-15,14,2,-4,-2,-1,-2
1512715200030050,0,6,-5,-4,-2,-2,-2,-1
1512715200031051,-1,1,-3,-4,-10,-4,-3,-2
1512715200031051,-4,-11,1,2,3,1,0,1
1512715200043387,2,18,-7,-4,2,-1,-1,-1
1512715200043387,-2,-4,1,1,-4,-2,-2,-4
1512715200052384,-4,-2,7,0,7,2,-2,-1
1512715200052384,-1,0,-4,-3,-4,-5,-2,-2
1512715200065382,2,-2,1,-5,-9,-5,-1,0
1512715200065382,-1,-1,-1,3,6,8,3,1
1512715200074386,1,13,-3,-3,0,0,-1,-1
1512715200074386,-5,-17,-7,-2,-7,-4,-2,-2
1512715200089385,3,5,6,-1,-4,-3,-2,-1
1512715200089385,1,2,1,4,14,6,1,0
1512715200091388,0,-5,3,2,2,4,1,0
1512715200091388,4,10,-4,-8,-1,-1,1,0
1512715200104387,-5,-9,-13,-3,-8,-4,-4,-8
1512715200104387,-2,-4,5,-1,-3,-5,-1,-3
1512715200112388,0,-5,-4,-5,-11,-3,-1,-2
1512715200112388,1,-4,-3,-3,-4,-9,1,-2
1512715200125473,0,0,3,3,9,6,3,0
1512715200125473,-5,-9,0,-2,-6,-6,-4,-2
1512715200134422,2,6,-3,1,8,8,2,0
1512715200134422,-1,0,1,-2,-6,-5,-4,-3
1512715200149429,0,-4,-7,-3,-7,-2,-2,0
1512715200149429,0,-4,-5,-2,-3,-4,-2,1
1512715200151390,-3,-2,1,-2,-12,-7,-4,-1
1512715200151390,0,3,0,6,3,5,2,1
1512715200163389,-2,-2,-2,1,16,11,1,0
