timestamp,emg1,emg2,emg3,emg4,emg5,emg6,emg7,emg8
1512715319927574,1,-3,-1,-1,0,4,1,-1
1512715319927574,-2,0,-1,-3,-3,-1,-2,0
1512715319928572,-2,0,-1,0,-3,-1,0,-2
1512715319928572,-2,0,0,-2,1,0,-2,-1
1512715319928572,-2,-3,-1,-4,-2,-4,-1,-1
1512715319928572,0,1,-1,0,-6,-2,-8,-3
1512715319931576,-1,-5,-3,-2,-4,-1,-7,0
1512715319931576,0,2,-4,-3,1,2,6,2
1512715319939576,-1,0,0,2,-1,1,0,-1
1512715319939576,-2,-3,-1,0,2,0,-1,-1
1512715319947576,-2,1,1,-1,-1,-2,3,-1
1512715319947576,0,-2,-3,1,-2,-2,-11,-2
1512715319953573,0,1,1,-2,-2,-2,-5,-2
1512715319953573,1,-4,0,1,1,0,1,-2
1512715319968575,-1,2,-3,1,-5,-8,-2,-2
1512715319968575,-2,-4,0,3,12,14,8,0
1512715319977577,-1,2,-2,0,-1,-1,0,1
1512715319977577,-1,-1,-1,-1,1,-2,-1,0
1512715319985577,0,0,1,-2,-1,-3,0,0
1512715319985577,-1,-1,0,0,-5,-6,-3,-3
1512715319999581,-2,0,-5,-3,-4,-3,-11,-6
1512715319999581,0,0,2,1,0,0,8,4
1512715320007579,0,-1,0,0,0,5,3,0
1512715320007579,0,2,-1,-2,-2,-3,-2,1
1512715320047324,-2,-5,-3,-2,-3,-2,0,-3
1512715320047324,0,7,1,-2,0,-2,-2,-2
1512715320048340,-1,1,0,0,-1,-1,0,-2
1512715320048340,-3,-8,-4,-1,-4,-4,-11,-3
1512715320048340,-2,-1,-1,-1,2,0,-1,0
1512715320048340,-4,-4,0,2,-2,-3,-4,-1
1512715320051327,-1,0,-3,-2,2,1,5,-1
1512715320051327,1,4,1,1,-6,2,-4,-1
1512715320059324,-2,-2,-1,-1,-4,0,-1,-1
1512715320059324,-1,0,-1,-2,-3,-1,-1,-1
1512715320066328,-2,-3,1,2,3,-10,-6,-1
1512715320066328,-1,0,-2,0,0,2,4,1
1512715320073329,-1,-5,0,-2,1,0,5,1
1512715320073329,-1,-1,-2,-1,-3,-1,-3,-1
1512715320088329,0,0,0,-2,-4,0,-1,-2
1512715320088329,-2,1,-1,-3,-4,-4,2,-1
1512715320096329,2,2,-2,3,8,3,-1,-1
1512715320096329,-1,-8,-1,-1,0,-3,-1,-1
1512715320112328,0,-3,-1,-2,-4,-1,-5,-1
1512715320112328,-2,1,-1,-2,1,-1,-2,0
1512715320119329,-4,-2,-1,-1,-3,-4,-4,-2
1512715320119329,1,1,-1,2,0,-5,2,1
1512715320126331,-1,-2,-2,0,5,11,0,-2
1512715320126331,-1,-1,0,-1,-1,-1,2,-2
1512715320133361,0,3,1,-1,-7,-1,-2,0
1512715320133361,-1,-3,0,0,-4,0,-4,-1
1512715320148333,-2,-7,-3,2,1,-6,0,1
1512715320148333,-1,3,-1,-3,-6,-2,-7,-1
1512715320157330,-1,-2,-3,1,9,-1,2,-1
1512715320157330,-3,-1,-1,-1,-4,1,0,-4
1512715320171332,1,0,-3,1,6,1,0,-2
1512715320171332,-1,-2,-1,-2,-1,-3,-3,-1
1512715320179333,-2,-4,-1,1,5,1,-5,-2
1512715320179333,-1,2,0,-4,-7,-4,-3,-2
1512715320186332,0,1,0,-1,-7,-4,-2,-1
1512715320186332,0,-1,-2,0,8,5,4,0
1512715320193335,2,-1,0,0,3,0,0,-1
1512715320193335,0,2,2,-1,4,1,-1,1
1512715320208336,-3,-1,-3,-5,-14,-7,-2,-1
1512715320208336,-1,2,3,3,5,5,5,-1
1512715320217335,2,0,-1,-2,-11,-6,-9,0
1512715320217335,-1,-2,-2,-1,5,2,5,-1
1512715320223336,3,4,1,1,-1,0,-2,0
1512715320223336,0,-4,-3,-2,-8,-3,0,-2
1512715320239338,1,2,0,0,9,-3,-2,-2
1512715320239338,-2,-5,-2,-1,-1,-1,-1,-1
1512715320246341,0,-1,-1,1,7,4,1,1
1512715320246341,0,0,-1,0,-2,-6,0,-1
1512715320253377,-1,-1,0,-5,-13,-5,0,-2
1512715320253377,0,-4,-3,-1,-6,-3,-1,-1
1512715320268341,-1,2,2,0,8,1,3,0
1512715320268341,-1,-3,-1,0,10,12,1,0
1512715320277341,-3,-2,-1,-2,-4,-1,0,-1
1512715320277341,0,-1,0,1,0,3,4,-1
1512715320291382,-2,-5,-2,-3,-10,-5,-6,-3
1512715320291382,-1,0,-3,-3,-4,-10,-5,-4
1512715320299382,-1,0,-3,-2,-5,-5,0,-4
1512715320299382,-1,-3,-1,-2,-8,-1,1,4
1512715320306383,-3,-4,-5,-2,5,-7,-12,-6
1512715320306383,0,1,1,0,-8,-4,2,1
1512715320313344,0,9,2,1,4,5,3,1
1512715320313344,-1,-1,-4,-3,-1,-3,-4,-2
1512715320329347,-3,-1,1,-3,-4,0,-1,-1
1512715320329347,-3,-8,-3,-2,1,-2,-5,-1
1512715320337345,-3,-1,-3,-3,-5,-5,-3,-5
1512715320337345,0,-4,-1,-1,-1,4,-2,-1
1512715320351348,0,8,3,-1,-1,2,3,1
1512715320351348,0,-5,-3,-1,1,0,3,-1
1512715320359387,-2,-4,-5,-3,1,1,0,-1
1512715320359387,0,3,-2,-3,2,-1,-2,0
1512715320366349,-1,-2,-1,-3,-1,3,3,-2
1512715320366349,0,2,1,1,-6,-11,-4,-1
1512715320373349,-1,-3,3,-2,-10,4,-3,-1
1512715320373349,-5,-4,-5,2,6,2,-1,-1
1512715320388355,0,-13,-1,0,2,2,1,-1
1512715320388355,2,11,0,-3,-1,2,3,1
1512715320396354,-1,-5,2,-1,-1,-8,-5,0
1512715320396354,0,5,1,-1,-2,-4,-1,-3
1512715320411358,2,7,0,0,-5,2,5,2
1512715320411358,-2,-11,-1,1,6,0,-4,-3
1512715320427357,2,4,-2,-6,-8,-1,5,2
1512715320427357,0,0,-2,0,2,-3,-4,-3
1512715320429356,1,6,1,0,-3,-3,-2,0
1512715320429356,-1,-5,-3,0,2,0,-3,-3
1512715320433358,-2,3,-4,-1,3,2,-3,0
1512715320433358,-1,-5,2,1,4,0,2,-1
1512715320448500,-5,-4,-2,0,1,-1,0,-3
1512715320448500,-2,5,-4,-7,-7,-3,1,1
1512715320456361,-1,1,2,0,-5,-6,-19,-2
1512715320456361,0,2,-5,0,-7,-3,34,0
1512715320471362,-1,-6,-6,-3,0,-2,-1,1
1512715320471362,-7,-13,-4,5,4,9,-3,-3
1512715320479365,-1,-3,0,-1,-3,-6,-2,-3
1512715320479365,1,3,-4,-9,-7,-4,-11,0
1512715320486408,1,10,4,2,19,8,1,1
1512715320486408,0,-1,-1,-1,-14,-5,4,-1
1512715320493362,-4,-8,-4,6,15,7,3,0
1512715320493362,-2,5,7,-3,-14,-6,-9,-4
1512715320508366,-4,-13,-4,-2,-18,-10,0,-4
1512715320508366,5,17,3,0,13,-3,-9,2
1512715320516365,1,-2,1,1,-3,1,6,-1
1512715320516365,4,3,-5,-1,4,0,-5,1
1512715320531371,-1,-2,-2,-2,-12,-5,-2,0
1512715320531371,-4,-6,5,3,-4,-2,0,-4
1512715320539367,-4,-2,-6,0,3,3,6,0
1512715320539367,-1,-5,0,1,3,0,-8,3
1512715320546367,0,6,0,-2,-1,2,-7,-2
1512715320546367,-2,-15,1,-3,-4,-4,-1,-2
1512715320562369,0,4,1,-2,2,3,2,1
1512715320562369,-3,-5,-2,2,5,2,-4,-2
1512715320568368,1,10,-4,-3,-1,-2,2,-2
1512715320568368,-3,-4,-2,-3,-2,-1,1,-1
1512715320576371,3,3,0,-1,-1,-7,-5,0
1512715320576371,-2,-8,-4,-4,0,2,-1,-2
1512715320591373,-6,-6,-2,-5,-9,-2,-2,-2
1512715320591373,3,3,1,3,-6,-7,2,1
1512715320599372,3,6,-2,3,22,12,1,1
1512715320599372,-4,-15,19,9,10,4,11,1
1512715320606375,5,18,6,0,5,-2,-2,1
1512715320606375,-4,-4,-5,-4,-6,-1,-1,-1
1512715320622371,-4,-7,-4,-1,-9,-4,0,-2
1512715320622371,0,18,1,-1,-5,-6,-7,-4
1512715320628376,-5,-14,-4,2,-1,2,-7,-1
1512715320628376,0,-5,-2,0,4,5,-1,2
1512715320636379,1,7,-4,-4,-10,-7,-4,-2
1512715320636379,-2,10,-3,-1,3,-1,3,-2
1512715320651378,-3,-29,-3,3,0,9,3,4
1512715320651378,1,18,-1,-3,2,-6,-5,-1
1512715320659383,-2,2,1,1,0,1,-2,-2
1512715320659383,2,-12,-7,-4,-5,-4,-5,-1
1512715320666380,-5,5,0,2,2,-4,1,-2
1512715320666380,-1,0,4,0,4,0,-2,0
1512715320682379,-3,-4,0,-5,-14,-6,0,0
1512715320682379,-1,3,-7,0,9,2,-5,-3
1512715320688382,1,-2,2,0,-2,1,1,0
1512715320688382,-5,4,-2,-1,0,3,1,-2
1512715320696383,-3,-14,-6,-8,-3,-6,-2,-1
1512715320696383,3,10,5,-1,-7,-3,-4,-1
1512715320711383,-4,-21,-6,1,-2,-2,-3,-2
1512715320711383,2,4,4,0,-4,-4,1,-2
1512715320719384,-3,2,4,2,2,3,-6,-2
1512715320719384,-5,-1,-7,-3,-2,2,1,0
1512715320726384,2,-3,1,1,-2,-7,0,-1
1512715320726384,1,0,0,-2,-2,-2,-5,-1
1512715320741386,-1,1,-8,-2,1,4,3,-4
1512715320741386,-3,-12,10,1,0,2,-1,-3
1512715320748384,1,7,-10,-6,-4,-5,-1,-1
1512715320748384,-4,-10,-2,-1,0,-2,1,-3
1512715320757385,-1,-13,4,1,0,-3,-1,-1
1512715320757385,-1,7,-2,-1,0,-1,-2,-1
1512715320771387,-3,1,7,4,3,1,1,-2
1512715320771387,1,0,-7,-4,-1,-2,1,2
1512715320780387,1,-2,-2,-1,-3,0,1,2
1512715320780387,-3,-4,-7,-2,-1,1,-2,-2
1512715320786386,1,3,0,-2,-3,-5,-2,0
1512715320786386,0,-5,-2,-1,0,0,-3,0
1512715320803389,0,4,5,-1,-4,-4,-2,-2
1512715320803389,0,0,-4,-2,-1,1,2,2
1512715320808388,0,0,4,0,-4,-7,-3,-1
1512715320808388,0,3,-1,3,12,6,0,-1
1512715320825389,0,2,3,0,-2,1,1,-1
1512715320825389,-5,-24,-8,-2,-2,-4,-2,-3
1512715320831388,2,17,-3,-1,1,2,1,-1
1512715320831388,1,0,-1,-5,-6,-3,0,-2
1512715320843390,-1,1,3,0,0,-2,0,-1
1512715320843390,-1,-7,-5,-2,-1,-2,-2,0
1512715320846389,-1,2,6,-1,-2,-4,-3,-2
1512715320846389,-3,-4,-4,1,-1,0,-2,0
1512715320862392,-4,-4,0,-1,0,1,2,1
1512715320862392,2,-3,-2,0,0,-2,-1,2
1512715320869391,0,7,-5,-1,2,2,-1,0
1512715320869391,-2,-5,-1,0,-3,0,-2,-1
1512715320885392,-6,-5,-5,0,6,4,2,-3
1512715320885392,1,12,8,-3,-3,-3,-3,0
1512715320891394,-1,-14,-19,-3,-1,2,3,1
1512715320891394,-4,-5,-7,-2,1,1,1,-2
1512715320900392,0,-8,6,2,-5,-7,-3,1
1512715320900392,-1,9,-10,-4,-2,2,1,0
1512715320906396,-1,10,1,-4,-1,-2,-4,-6
1512715320906396,0,5,14,-1,-6,-3,-1,-2
1512715320923394,4,1,-6,3,0,-1,1,1
1512715320923394,-4,-4,-1,2,-1,-3,-3,-4
1512715320928394,-1,-3,-1,-3,-1,-1,-2,-1
1512715320928394,-2,-4,0,-1,3,1,0,2
1512715320945396,-3,0,7,-3,-6,0,-3,-6
1512715320945396,0,-2,-10,1,1,0,0,1
1512715320951400,-3,-6,-9,-4,-2,-1,-1,1
1512715320951400,-2,-6,1,-2,1,0,0,-1
1512715320960397,-2,-2,-8,-4,-3,-4,-1,-2
1512715320960397,0,14,4,0,0,-1,-1,0
1512715320966397,-1,-19,2,-2,0,-2,2,-1
1512715320966397,5,10,-4,1,0,-1,0,-3
1512715320990398,1,-1,-5,-2,0,-2,-5,0
1512715320990398,6,-17,-1,0,-2,-1,-2,-2
1512715320990398,-7,15,1,-1,0,1,2,1
1512715320990398,-2,-4,2,2,-5,-3,-3,-4
1512715321029402,3,6,2,0,-1,0,0,1
1512715321029402,1,1,-1,1,0,0,0,-2
1512715321029402,-1,-18,15,2,2,1,0,1
1512715321029402,-1,11,-13,-3,-2,-1,-1,-1
1512715321029402,0,-5,-3,-1,1,1,2,3
1512715321029402,-1,8,-3,-5,-2,-3,-2,-1
1512715321054403,-1,5,0,2,0,0,-2,-4
1512715321054403,-2,-13,0,2,1,2,1,0
1512715321054403,0,19,0,-1,-2,1,-1,0
1512715321054403,-3,-1,1,-1,-1,-1,-3,-1
1512715321075403,0,-9,-9,-3,-3,-2,-3,-2
1512715321075403,-1,-7,17,6,1,-1,0,0
1512715321075403,-1,7,3,-6,-3,-2,-1,1
1512715321075403,-4,-13,-6,-1,0,0,-1,0
1512715321075403,-2,4,-1,0,-3,-2,-1,0
1512715321075403,0,7,-3,-3,-3,-1,-2,-1
1512715321080403,-3,-18,-1,0,1,0,-1,-2
1512715321080403,1,15,14,2,-2,-1,0,-1
1512715321119404,3,0,-9,-3,-2,-3,-4,-3
1512715321119404,0,-1,2,-3,-3,-2,0,1
1512715321119404,-1,-5,-5,-3,-2,0,-2,-3
1512715321119404,-3,-9,-4,-1,-1,0,-2,0
1512715321119404,-3,3,0,0,0,0,0,-2
1512715321119404,3,-8,-8,-4,-3,-3,-1,1
1512715321125406,-2,6,-2,0,-2,0,-1,-1
1512715321125406,-3,-6,3,-3,-2,-1,0,-2
1512715321131406,1,3,-2,-2,-1,-1,-1,0
1512715321131406,1,5,1,0,0,-2,-4,-3
1512715321140407,2,-11,-8,2,1,1,1,-1
1512715321140407,-12,-13,2,0,-1,0,-1,-1
1512715321201410,-2,7,-3,-2,-1,-2,-1,-1
1512715321201410,0,10,8,0,0,0,2,0
1512715321203411,-1,-6,-10,-1,0,-2,-2,-2
1512715321203411,3,5,3,0,-1,-2,0,-1
1512715321203411,-2,-10,-3,-1,0,2,-1,1
1512715321203411,-7,-1,-4,-1,-3,0,-1,-5
1512715321203411,-1,5,0,-1,0,-1,-2,-1
1512715321203411,1,4,1,1,0,-1,-1,-1
1512715321203411,-1,-14,-1,-4,0,-1,-1,0
1512715321203411,2,5,-4,-3,-1,-2,-3,-1
1512715321203411,0,-2,-1,-1,-1,-2,0,0
1512715321203411,0,0,-2,1,-1,-2,0,-1
1512715321213409,0,9,-3,-1,-1,-2,0,0
1512715321213409,-2,-4,0,1,0,0,-1,-1
1512715321222412,-3,-17,-3,-3,-3,0,-2,-2
1512715321222412,1,10,-10,-4,-1,-1,-3,-2
1512715321236411,2,1,8,2,-3,-2,-1,-4
1512715321236411,0,-5,-8,-3,0,0,0,0
1512715321245414,-3,-4,-2,1,-1,-2,0,-2
1512715321245414,-4,-9,-2,-1,0,-1,0,-1
1512715321251418,-1,0,1,0,-2,-3,-1,0
1512715321251418,-3,0,-4,-2,-2,-2,-1,-5
1512715321260415,0,-1,4,-3,-2,-2,-1,0
1512715321260415,1,1,-14,1,0,-2,-1,-1
1512715321273411,0,2,5,-1,-1,-1,-1,0
1512715321273411,-5,-13,-16,-2,0,-1,-1,1
