timestamp,emg1,emg2,emg3,emg4,emg5,emg6,emg7,emg8
6589519313,-3,6,13,3,-8,-5,-5,-3
6589519313,0,-18,5,-1,0,-3,-1,0
6589520257,0,3,-5,-1,1,1,1,-2
6589520257,-2,10,-4,-1,-5,-2,-3,-1
6589524328,-3,-14,-7,5,13,4,2,0
6589524328,-1,-5,-3,-2,-5,0,-1,-1
6589526772,4,13,1,4,-6,-9,-3,1
6589526772,3,-9,10,16,14,11,7,0
6589530108,-4,-9,-14,-20,-8,-5,-5,-4
6589530108,-7,13,13,13,7,2,-1,-5
6589541609,3,-5,-21,-22,0,-2,0,3
6589541609,0,-11,9,-3,-11,-7,-5,-1
6589553856,2,6,-12,-14,-6,-7,-2,1
6589553856,1,7,4,4,4,9,6,-1
6589561513,-15,-15,4,21,12,3,-2,-5
6589561513,-1,1,-3,3,-2,-1,0,-1
6589568694,5,14,1,-3,-5,-1,-1,0
6589568694,-1,-6,-9,-13,-16,-11,-8,-1
6589583794,3,-10,7,-3,5,9,5,-2
6589583794,-1,9,-2,-3,6,0,2,0
6589590138,-4,-2,4,7,-3,-2,-2,-1
6589590138,-2,-9,-6,1,5,7,4,0
6589636909,-1,2,-3,-7,-2,-2,-5,-2
6589636909,-9,-29,-3,-2,-1,-3,-3,-4
6589637592,4,13,-1,-1,-6,-6,-1,0
6589637592,0,8,0,5,15,14,9,-2
6589638421,-3,-20,1,-3,-5,-4,-2,0
6589638421,-4,3,-1,0,-1,-1,-1,-1
6589639249,-4,16,3,1,0,-1,0,-1
6589639249,4,-5,-2,-2,-5,-5,-8,1
6589649906,6,-5,-3,6,-2,1,-1,0
6589649906,4,24,1,5,-1,1,0,-2
6589658076,-1,-6,-1,-6,0,-2,-4,1
6589658076,-4,-13,0,2,-5,-2,-1,-3
6589664785,-4,12,0,-1,6,1,0,-1
6589664785,-1,1,-7,-7,-5,-2,-1,-1
6589680610,-5,-17,0,8,8,2,-2,-1
6589680610,-1,3,3,-10,-13,-5,-2,-1
6589687428,2,11,0,5,7,1,1,1
6589687428,-3,-10,-4,-6,0,-2,-2,-1
6589694944,3,-8,-2,-3,-2,0,1,-3
6589694944,-13,-3,-3,-4,1,0,-2,-1
6589709869,1,0,-6,-4,-4,-1,1,0
6589709869,-5,-9,-2,0,0,-2,3,-7
6589718100,-3,-2,0,-1,-2,-4,-16,-1
6589718100,13,6,-4,-2,-3,-3,-20,6
6589724873,-10,-12,-6,-2,-5,-10,4,-3
6589724873,9,8,2,-3,-2,2,-3,-21
6589740594,2,-1,-10,-3,1,6,-37,32
6589740594,13,9,9,6,3,24,54,50
6589747302,-17,-9,0,-4,-4,-22,-23,-32
6589747302,-8,-2,-1,4,8,17,-25,11
6589754882,-3,-5,0,-3,-11,-21,14,-26
6589754882,-12,-16,-8,-4,1,-3,-16,-12
6589769889,-18,14,3,2,3,7,0,4
6589769889,14,12,4,-3,-7,-12,16,-3
6589778135,12,-24,3,3,4,6,-3,-9
6589778135,-12,-17,-4,7,5,0,-1,-9
6589784905,12,65,14,-11,-8,0,1,-1
6589784905,-7,2,-6,9,-3,-7,-4,3
6589800509,25,5,-2,0,3,5,11,7
6589800509,-17,-54,-10,4,3,-4,-7,-8
6589807300,-10,12,-2,4,-7,0,0,-7
6589807300,1,33,12,21,10,4,3,16
6589823782,-23,-61,-2,-28,-25,-8,-1,-1
6589823782,7,-40,18,2,5,-2,12,-12
6589829907,16,-14,-27,10,18,20,7,14
6589829907,-9,-96,18,24,-16,-7,-1,2
6589838786,-14,48,-14,-26,-1,-8,-4,-6
6589838786,20,-45,-3,-4,-19,-8,-25,-29
6589844789,-7,10,13,-3,3,1,-1,10
6589844789,-34,-88,-39,-17,2,10,9,5
6589861296,-8,-14,16,24,10,1,25,-3
6589861296,35,-7,13,3,-2,0,4,22
6589867327,62,68,5,-16,-19,-3,4,4
6589867327,-30,23,-30,-24,-13,-50,-27,-45
6589883755,-23,11,-3,2,-15,21,3,9
6589883755,-13,91,0,4,17,14,2,1
6589889916,13,8,-2,-6,4,5,0,11
6589889916,8,-7,16,26,5,4,17,-6
6589898766,16,27,2,-7,4,-1,-1,0
6589898766,-11,13,-5,-10,-12,-24,-12,-6
6589904865,-11,-76,-11,-20,-2,-1,-10,-2
6589904865,8,46,5,13,20,-2,-22,5
6589921215,3,-8,16,48,-4,-1,-9,-6
6589921215,-1,-7,-20,-64,-28,-10,2,2
6589927209,-16,3,-2,30,1,-8,-14,-10
6589927209,5,13,5,-51,-17,1,4,5
6589942387,18,-23,8,29,43,17,8,6
6589942387,-20,6,7,67,21,31,7,-12
6589949878,-12,-27,-17,-9,-24,-16,2,-4
6589949878,19,-5,-9,-42,-10,3,6,10
6589958785,2,10,6,16,-2,-32,-1,-4
6589958785,-31,-12,2,-103,-28,-23,-23,-16
6589964795,-1,-23,-3,46,20,17,7,4
6589964795,9,5,10,25,25,8,5,5
6589981255,-14,-2,-26,-44,-26,0,-4,-5
6589981255,7,22,8,79,-12,-30,-9,0
6589987387,0,-11,-9,-9,-15,-9,-5,-5
6589987387,7,14,-40,-40,-1,4,1,3
6590002345,-6,-4,4,-20,5,5,3,-3
6590002345,12,3,-34,19,-6,0,-4,5
6590009757,-11,12,27,-33,-15,-20,-3,-10
6590009757,7,22,-11,69,9,6,-6,4
6590018774,1,11,-16,-19,9,13,4,1
6590018774,15,18,-4,3,3,-9,11,8
6590024778,3,0,-6,-12,9,4,4,1
6590024778,-12,12,29,-7,-11,-8,-5,-3
6590041236,-4,-13,-2,2,-7,8,-2,0
6590041236,5,12,7,2,10,3,0,0
6590047265,-6,0,5,17,13,1,21,5
6590047265,19,4,6,-1,-16,0,-54,-2
6590062205,-1,-16,-13,12,3,3,53,9
6590062205,-13,-5,-2,-14,10,11,1,-9
6590069753,-12,-20,-5,-3,-1,-5,-12,-10
6590069753,9,-11,0,-10,-2,3,-35,5
6590078734,-11,3,3,-19,-10,-6,-23,-4
6590078734,-2,10,6,5,9,5,1,-2
6590084724,5,-29,-1,-2,-6,-6,12,-1
6590084724,-3,22,9,-1,-5,-1,5,-5
6590101237,0,-8,-4,6,2,-11,-18,-3
6590101237,-14,-1,1,-2,3,8,4,3
6590107226,-2,-15,1,3,-2,5,-8,-1
6590107226,-9,9,-1,-8,5,0,11,-2
6590122221,15,36,12,4,-4,-3,-3,-2
6590122221,19,2,-9,-21,-4,-1,3,6
6590129754,-27,37,-3,-12,0,-2,-4,-5
6590129754,7,36,-3,3,5,8,25,9
6590138745,-19,-6,4,-8,-4,0,-1,-7
6590138745,4,-13,14,18,-3,-8,-13,-9
6590144715,0,-35,8,26,7,10,4,9
6590144715,-47,-64,-12,-21,-10,-5,11,-13
6590161227,16,60,21,16,-8,-1,-9,-1
6590161227,-3,-80,-40,-27,5,-4,-4,0
6590167237,16,27,-7,6,7,10,1,1
6590167237,41,90,25,30,13,3,16,12
6590182207,-48,-65,1,-21,3,-4,-4,-12
6590182207,-15,40,26,0,-8,1,-1,-6
6590189723,8,44,-5,-9,-1,1,0,3
6590189723,14,-6,-18,-33,-4,-1,4,4
6590198768,-9,-29,-23,29,-8,-10,-8,-5
6590198768,58,87,23,4,3,4,11,19
6590204751,-90,-82,-29,-15,-3,-6,-9,-21
6590204751,9,101,-10,-12,-6,-2,-10,-7
6590221258,16,-104,-23,-18,-8,-8,-10,9
6590221258,-38,7,0,10,-5,-5,1,-11
6590227248,36,-11,3,-14,-11,-5,-4,7
6590227248,-34,-55,-42,-2,-3,-5,11,-9
6590242256,-10,10,-1,15,19,1,-36,-13
6590242256,24,28,45,3,-1,8,-5,23
6590249734,12,17,5,1,-10,5,14,9
6590249734,-13,-66,3,-9,-3,-1,3,-1
6590258715,37,66,11,-24,3,12,4,4
6590258715,-13,-32,-29,19,-7,-12,-16,-4
6590264747,-5,-26,3,5,-9,2,-11,-6
6590264747,-14,-27,-9,-33,8,9,9,-3
6590281275,8,21,5,-14,-31,-26,5,2
6590281275,-3,0,2,-9,-17,-9,27,-11
6590287356,7,-18,-17,-37,19,-1,7,4
6590287356,24,32,47,124,21,-21,-6,7
6590303788,-19,8,-3,-19,-9,20,5,-11
6590303788,-6,-40,-11,-21,52,9,1,1
6590309910,23,33,21,58,2,6,-5,5
6590309910,-3,-16,2,-41,7,-2,13,-2
6590318763,5,-7,-39,-4,4,-11,-2,3
6590318763,-20,-25,-8,33,-38,-18,-14,-14
6590324853,-22,-26,-1,-45,21,9,1,-9
6590324853,6,-12,24,7,-33,-9,-11,1
6590341270,-4,-8,1,39,26,6,3,-4
6590341270,25,40,2,19,11,5,9,14
6590347412,10,41,9,-4,-33,-6,2,-3
6590347412,-3,-20,-36,23,15,-3,-8,-3
6590362299,-5,11,13,24,-6,6,5,-3
6590362299,-7,-10,-21,-30,11,-2,2,-6
6590369930,1,-23,1,22,2,-4,-1,8
6590369930,-3,-1,0,-11,-15,-1,-4,-5
6590378725,14,22,-1,-32,-1,-1,10,11
6590378725,-14,-8,-11,-2,-2,-3,-13,-11
6590384875,6,12,8,-3,-2,-2,-12,-7
6590384875,0,-25,2,-18,-5,9,-3,2
6590401251,-19,-1,2,2,5,-4,-3,1
6590401251,0,-16,4,-11,-11,6,0,-4
6590407384,2,6,-2,-3,4,-10,10,2
6590407384,-5,-6,10,-1,3,11,9,-6
6590422391,2,3,7,12,9,-1,-37,5
6590422391,-3,-4,-10,-17,-10,-4,-5,-2
6590429905,3,-4,2,6,0,-7,-16,-4
6590429905,9,1,0,-4,0,9,17,3
6590438746,-9,-4,-1,-15,-7,3,15,-3
6590438746,-3,-1,5,-5,-2,0,-5,0
6590444859,1,0,-7,-4,3,2,-1,-7
6590444859,-24,-14,-5,-13,-10,-2,-4,-1
6590461216,16,-4,-5,-5,-4,-9,2,-3
6590461216,3,12,11,9,6,16,-4,-1
6590467407,-4,-7,-12,4,-6,-7,4,1
6590467407,-1,13,4,-13,0,-1,-1,4
6590482279,1,-21,-6,-5,-1,-4,6,1
6590482279,21,38,1,8,6,-5,0,3
6590489918,-1,-22,7,-4,0,9,4,3
6590489918,7,40,8,-3,-6,-8,-8,-4
6590498769,-5,23,24,44,8,5,5,2
6590498769,-29,43,-5,-26,-9,-5,-5,-15
6590504868,20,-14,-34,-23,-4,0,-5,3
6590504868,-3,10,-2,7,-2,-1,1,2
6590521223,-23,82,29,-5,-1,-3,3,-11
6590521223,10,18,19,25,-6,-4,1,6
6590527319,-6,59,6,6,13,12,7,-4
6590527319,-23,-40,-39,-11,3,-5,-8,-1
6590542254,-3,-31,-56,-24,-16,-8,-2,-4
6590542254,18,9,14,-6,-6,-1,4,3
6590549754,-15,3,25,4,-9,10,-8,0
6590549754,27,12,18,-21,7,-1,0,3
6590558781,-11,-60,-14,28,-17,-8,-12,5
6590558781,14,53,-12,-18,10,11,19,2
6590572280,-11,33,-29,-42,1,-11,2,-6
6590572280,-16,-32,33,6,25,-16,-18,-4
6590581293,-6,-14,2,5,-5,48,0,-10
6590581293,4,-21,-19,-22,-22,-10,50,19
6590587283,4,6,19,19,4,-23,-50,-12
6590587283,24,28,30,58,3,16,29,5
6590602253,-16,12,-5,-31,38,-2,16,7
6590602253,-3,-53,-19,7,1,-26,-40,-7
6590609784,12,63,13,16,8,22,9,4
6590609784,-13,-6,-40,-55,-40,-23,-15,-7
6590624895,23,65,37,53,-2,13,-9,-4
6590624895,-26,-21,-17,-17,4,8,-4,-8
6590632418,7,-18,-14,-6,-14,-16,11,8
6590632418,7,-26,14,20,1,3,0,0
6590641248,-4,-67,-9,-18,-9,-43,-6,-10
6590641248,-4,-8,48,45,16,23,3,2
6590647432,-27,-90,24,-90,-23,-15,-6,-12
6590647432,2,-50,-32,0,26,33,18,8
6590662288,12,26,-11,-39,8,-14,2,5
6590662288,-14,-30,-1,2,-11,-12,-10,-11
6590669844,14,5,-13,30,-29,-3,-4,3
6590669844,18,82,32,-6,13,-14,-1,3
6590684857,-12,-17,27,35,-9,5,3,-5
6590684857,6,-17,-50,-41,-2,2,-5,6
6590692323,4,7,-9,84,22,10,7,3
6590692323,-2,15,-11,-19,-30,-20,-13,-7
6590707977,-2,-8,-2,-11,-4,-5,-6,-7
6590707977,-6,14,15,28,4,6,-2,-3
6590708766,-8,-18,-25,-26,25,15,16,4
6590708766,-8,-19,-10,18,-2,0,-5,-4
6590722280,13,-10,-2,-16,-8,-9,-6,3
6590722280,-1,9,18,19,-4,-10,-7,-2
6590729842,-11,5,5,-17,4,-10,-12,-1
6590729842,-7,-20,-5,-10,-11,9,28,1
6590744938,16,16,4,-2,-1,2,14,4
6590744938,-14,-6,5,-17,0,-14,-13,-2
6590752261,7,4,4,32,7,5,6,-1
6590752261,1,-1,10,5,-3,-1,-9,-2
6590768008,1,8,-12,-10,3,8,1,4
6590768008,8,11,-2,2,2,-1,-3,-2
6590768695,-4,3,18,4,-1,-6,0,-2
6590768695,-10,-21,-5,1,4,7,1,0
6590782345,3,-21,-5,-12,-1,-8,-1,-3
6590782345,-7,-18,-1,-11,-8,-6,-23,-8
6590789859,-10,-13,5,-3,-8,-14,-10,4
6590789859,4,-12,-14,-12,-2,14,15,-3
6590804857,2,3,-8,8,3,4,11,4
6590804857,-8,-14,-14,-7,1,4,-13,-4
6590812338,17,-9,-6,2,1,-5,5,5
6590812338,-13,0,0,0,-5,-6,-10,-8
6590828048,-14,17,6,-3,-1,9,-6,-3
6590828048,1,-2,7,18,-1,3,16,7
6590828733,-10,31,4,-20,0,-1,-1,-3
6590828733,1,2,5,9,-6,-1,-9,0
6590842417,2,10,-31,-23,1,3,2,-1
6590842417,15,14,14,22,6,0,7,1
6590849772,2,31,-4,-10,-8,2,0,1
6590849772,-16,-6,-5,-3,-5,-7,-8,-4
6590864807,0,-31,-10,-17,-5,-7,-7,-3
6590864807,1,14,4,8,2,6,10,5
6590872388,20,3,5,10,-1,0,3,3
6590872388,8,51,-1,-4,4,6,3,1
6590888115,-21,4,-19,-7,5,-2,-1,-4
6590888115,-13,-57,-10,-22,-6,-2,-6,-6
6590888661,5,-3,24,26,-1,2,3,-5
6590888661,14,8,2,-1,0,-7,-6,7
6590902239,12,34,-2,12,2,0,0,5
6590902239,-6,-14,-6,-14,1,2,3,-5
6590909857,-20,-70,-23,-9,-8,-2,-4,-5
6590909857,26,-5,2,-3,2,0,1,5
6590924914,-19,2,11,14,-2,-1,-2,3
6590924914,49,103,34,6,9,7,13,12
6590932368,-23,62,-15,10,1,2,-5,-9
6590932368,-20,-49,8,14,-4,-10,-10,-9
6590948063,23,20,0,6,3,2,9,0
6590948063,-34,-10,5,27,8,2,-1,1
6590948732,5,10,-29,-13,2,1,-1,-1
6590948732,-1,35,5,21,-9,-4,-8,-7
6590962321,19,6,21,-44,-21,-21,-15,3
6590962321,-28,-69,-15,-17,-12,4,1,-7
6590969878,-3,-87,-11,6,12,1,1,-2
6590969878,-9,83,5,15,9,10,2,2
6590984780,18,28,17,5,-6,5,5,1
6590984780,-5,7,-4,-7,2,-7,0,-2
6590992379,-10,-30,-8,-9,-10,-11,-15,-10
6590992379,-1,-3,-18,-27,5,-1,-28,6
6591008103,-2,-27,5,-8,-11,7,5,1
6591008103,-1,0,-19,-6,13,-5,5,2
6591008681,10,31,16,48,3,17,5,2
6591008681,-7,-25,-26,-61,7,-9,-8,-11
6591022360,-18,-18,6,-11,-22,-4,6,-3
6591022360,-1,-8,-5,29,10,-5,-10,-7
6591029861,9,9,18,-7,4,-7,-6,3
6591029861,2,-32,-1,-10,9,-7,6,-1
6591044868,-9,-39,-2,41,-2,3,-6,-3
6591044868,-14,9,14,-32,-1,14,3,-8
6591052255,10,0,-2,-22,4,-3,4,7
6591052255,-5,-3,18,30,-15,4,8,-2
6591068079,3,13,-14,-39,30,-13,-6,-2
6591068079,8,6,0,-6,-36,-10,-5,4
6591068713,6,12,13,53,19,12,13,5
6591068713,-2,-10,-8,5,7,1,3,-1
6591083771,-2,9,-11,8,-16,-10,-7,-3
6591083771,15,12,-6,20,-4,-6,-3,0
6591089819,-12,15,-6,-71,-10,-1,-1,-9
6591089819,-5,3,-9,-12,-21,-18,-11,-7
6591104857,10,14,11,46,16,5,-3,3
6591104857,4,0,7,17,9,3,6,3
6591112295,-4,-2,-9,-9,-14,-11,0,-3
6591112295,0,-16,3,13,1,8,15,3
6591128078,1,-2,6,-18,0,-1,3,-6
6591128078,-3,-12,-16,-22,-3,1,-21,2
6591128699,-3,-7,7,-5,-13,-12,-5,-3
6591128699,2,-10,-7,-3,0,2,0,1
6591150542,3,-11,-6,1,7,14,5,2
6591150542,3,-8,-7,-5,1,-5,-2,-2
6591151237,-13,-13,2,11,-1,3,-1,-3
6591151237,-10,-1,1,0,-4,1,1,-1
6591164820,-3,-18,1,-3,-5,-3,-5,2
6591164820,10,2,-1,0,-1,-4,7,-11
6591172385,-2,8,-6,-4,1,1,-9,6
6591172385,1,-3,-2,-6,-1,-9,-22,1
6591187984,-19,9,0,5,4,2,7,-2
6591187984,-11,14,-4,-16,-7,1,9,-5
6591188696,13,11,8,2,1,4,5,-3
6591188696,0,6,7,10,3,3,2,3
6591210588,6,7,1,7,1,-1,-5,3
6591210588,-3,3,-3,14,-7,-3,-4,0
6591211239,4,-25,-30,-40,-3,-3,-7,-1
6591211239,2,20,-2,0,-3,1,4,2
6591224898,-22,-28,4,13,-4,-4,-7,-10
6591224898,11,-3,0,-15,1,3,2,2
6591232342,10,17,-2,18,5,3,6,4
6591232342,27,25,12,-1,-1,1,7,4
6591248033,-18,-22,-21,-9,-6,-1,2,-2
6591248033,-19,-8,5,1,-2,-3,-6,-3
6591248691,18,-39,10,14,-9,-6,-3,0
6591248691,-14,8,-21,0,12,2,3,1
6591262361,-2,52,28,6,0,-2,-10,-5
6591262361,24,-38,-2,-13,1,6,5,6
6591269836,-18,13,4,-2,1,0,-3,-5
6591269836,18,0,-8,25,4,5,16,1
6591284861,-10,-36,-5,-16,-19,-15,-17,2
6591284861,19,48,-10,-19,-10,-11,6,0
6591292371,-33,-1,-18,19,0,5,-8,-2
6591292371,-10,-65,0,-25,9,8,-10,-9
6591308068,22,101,32,44,13,5,9,7
6591308068,-11,-88,-20,-33,-7,-9,-10,-6
6591308688,8,34,42,18,-19,-8,-1,0
6591308688,-17,-40,-26,-25,-15,-8,-1,1
6591322344,21,-12,-14,-22,13,9,-15,7
6591322344,-10,16,15,34,21,19,24,0
6591329739,-1,8,20,16,-13,-12,-10,-4
6591329739,-14,10,-6,-20,5,-8,-4,-1
6591344785,-4,5,-1,21,-21,5,9,-6
6591344785,1,104,-1,10,7,-7,-5,4
6591352345,-16,12,-15,-9,-19,2,-7,-9
6591352345,17,55,10,-21,-13,-13,9,-1
6591368081,-9,-35,-15,-2,-18,-28,15,-8
6591368081,-14,-35,0,-12,9,-10,-25,-9
6591368652,16,-63,0,24,24,51,16,7
6591368652,-4,-41,3,-1,-10,-12,-6,0
6591382359,9,-18,7,1,30,11,16,-3
6591382359,-5,-34,-14,6,12,-16,10,5
6591389817,-17,-35,-7,-48,-44,-10,-9,-7
6591389817,4,2,20,70,23,1,-3,2
6591404862,-10,-22,-7,-29,46,11,3,-2
6591404862,0,-16,-4,17,-13,7,-4,-2
6591412336,-2,4,-17,-25,16,-20,-8,-3
6591412336,-7,20,8,-17,-58,-9,-6,-7
6591428062,-15,-27,0,43,19,7,-2,-4
6591428062,-4,-2,-2,-24,-18,1,-11,-8
6591428729,-10,-3,9,35,24,-6,11,2
6591428729,-12,-15,13,2,-17,9,-5,-4
6591442319,8,9,-24,-94,-5,-5,-13,1
6591442319,-2,16,-9,-12,-20,7,1,-2
6591449826,11,21,7,48,21,-14,14,6
6591449826,0,-4,-5,23,23,20,-2,-1
6591464748,15,10,5,1,-25,-3,-5,3
6591464748,-9,1,6,22,7,-5,-4,-1
6591472350,-3,10,4,-27,-18,-2,7,-1
6591472350,3,4,-8,-1,13,7,-2,0
6591487289,5,5,-5,6,-7,3,6,-1
6591487289,8,12,-3,-6,-10,-5,1,-3
6591495602,-7,0,1,-6,5,-8,-32,0
6591495602,-16,-20,-1,-6,4,-8,8,-7
6591502382,-19,-8,-2,-1,-13,-10,6,-4
6591502382,10,-2,6,3,6,2,2,3
6591509848,9,-12,-11,-20,0,19,-2,-3
6591509848,-2,-17,-7,-5,1,-8,-14,-3
6591524871,7,3,-5,5,-5,-2,-27,3
6591524871,4,4,0,3,1,-1,14,-2
6591532296,1,13,-5,-6,3,2,16,3
6591532296,-13,9,-6,-5,-3,0,-2,-2
6591547290,1,-13,-6,6,-5,-4,0,-1
6591547290,7,2,8,1,2,-2,-7,6
6591555507,-7,12,4,-5,1,3,5,-1
6591555507,1,1,-11,-3,4,-4,-4,-5
6591562238,-12,14,6,-3,-7,-2,0,-5
6591562238,4,-4,4,3,-1,3,-10,1
6591569833,24,4,-29,-15,-8,-7,14,7
6591569833,2,-7,0,1,-2,1,4,-2
6591584740,-24,3,-2,4,-1,-3,-4,0
6591584740,2,-2,8,1,-10,-10,-5,-1
6591592343,9,50,-7,-3,4,21,-7,2
6591592343,11,51,7,10,15,5,21,7
6591607318,-20,-67,-27,-15,-8,-3,-4,-12
6591607318,-3,-11,-5,-6,-1,-1,-4,-3
6591615439,14,43,5,-5,-11,-21,-10,-2
6591615439,-28,-18,7,4,-3,4,-2,-8
6591622265,20,27,13,1,3,2,1,4
6591622265,9,-17,-18,-9,-7,-6,-4,4
6591629876,-22,-17,-8,-4,8,-1,1,-7
6591629876,27,56,15,17,2,1,-2,5
6591644832,-3,-28,0,3,0,1,4,6
6591644832,-6,65,47,29,-2,2,-4,-9
6591652382,3,3,-47,-66,0,-3,0,0
6591652382,-5,-15,-5,5,-6,1,-2,2
6591667201,11,-25,-18,-1,7,2,1,2
6591667201,25,15,14,13,8,9,7,13
6591675442,-39,10,29,32,5,1,-2,-9
6591675442,-40,-82,-14,-5,-5,-9,-12,-16
6591690474,33,19,21,-29,-5,0,21,15
6591690474,9,46,-36,-35,-1,-9,-22,-3
6591691101,-5,-1,0,2,-8,-4,-1,-4
6591691101,-8,-10,-8,-17,26,-1,8,8
6591704800,5,-6,13,11,-13,17,-8,-8
6591704800,-28,-54,-4,20,22,5,22,-5
6591712320,17,-25,4,1,4,-3,-15,-4
6591712320,27,34,6,-21,-36,-23,-18,-3
6591727332,-6,8,-4,16,26,11,12,2
6591727332,-17,-13,-11,-23,-27,-6,7,-5
6591735533,-3,-18,0,12,29,-18,-10,-4
6591735533,-4,-29,5,21,-26,17,9,6
6591750450,5,15,1,-6,-2,-25,3,3
6591750450,-20,-20,5,32,50,37,-23,-6
6591751163,20,-22,-2,-24,-14,-14,12,8
6591751163,-4,-13,19,-40,-27,-19,-19,-9
6591764815,-4,1,-32,-45,-47,-9,0,-4
6591764815,-1,-2,7,0,-49,-24,-4,-4
6591772319,0,-27,8,32,22,12,0,1
6591772319,13,20,12,86,34,16,7,4
6591787293,-16,-6,-6,-41,4,14,-8,-8
6591787293,-7,-36,-9,-34,35,0,13,1
6591795469,-1,-1,13,-19,-69,-4,-6,-3
6591795469,5,16,-25,27,32,-3,5,1
6591810484,0,9,12,21,-12,2,-5,-2
6591810484,-3,-13,-29,-3,11,-1,0,2
6591811171,-3,1,24,13,4,1,5,1
6591811171,-3,2,5,-30,3,4,0,-2
6591824834,6,18,-17,-3,-3,-4,-2,2
6591824834,11,30,12,11,-3,-13,-10,-3
6591832364,-5,-9,-7,-17,4,14,7,-3
6591832364,-9,-16,-24,-28,-19,-5,3,-1
6591847322,1,-1,4,10,4,-1,-5,1
6591847322,-10,10,6,12,-7,-3,6,-4
6591855485,-1,-11,-2,24,2,-3,0,3
6591855485,19,18,2,-12,7,6,1,5
6591870483,-9,4,3,5,5,-14,0,-6
6591870483,3,3,13,3,-7,9,-3,6
6591871193,6,10,-8,-11,-2,-4,-5,-2
6591871193,-17,-6,-10,-15,-1,15,6,1
6591884836,-9,-11,-1,17,2,-11,7,-5
6591884836,33,9,0,-5,-9,10,-7,9
6591892335,-23,-9,-4,1,2,-4,1,-3
6591892335,-1,-19,-9,-8,1,-15,-23,-7
6591907346,-1,-2,16,26,10,11,0,-9
6591907346,-7,-13,-8,-7,2,11,34,5
6591915533,8,-9,-4,-3,0,1,1,6
6591915533,9,9,12,2,-1,-6,9,0
6591930487,-4,-7,-9,-3,2,2,-44,3
6591930487,6,-18,-4,-7,-7,-13,-3,-4
6591931245,-9,-1,-9,0,-1,-16,2,0
6591931245,-9,-1,-4,-5,-8,15,8,-6
6591944835,3,5,4,6,-1,-1,-6,-3
6591944835,-7,-20,-10,-5,-7,-9,-15,-1
6591952291,6,23,2,3,-1,-4,4,1
6591952291,-11,-8,-3,-3,-5,-10,-12,-8
6591967266,15,-12,-9,-1,12,11,18,0
6591967266,-9,35,-1,6,6,5,1,7
6591975450,-17,-56,-11,-18,-13,-2,-2,-9
6591975450,-4,-24,6,2,4,-3,-6,-2
6591990456,-21,-39,-4,10,-3,-2,-1,-2
6591990456,21,84,11,-4,-5,-7,-1,1
6591991143,-9,-67,-20,4,3,7,-10,-3
6591991143,12,-5,18,3,-3,1,4,3
6592004809,8,-12,4,11,-7,-13,-4,0
6592004809,-15,-52,-7,-8,10,11,5,-3
6592013052,-8,77,21,0,7,1,5,2
6592013052,10,48,-16,-17,-17,-15,-2,1
6592027296,-15,31,6,5,-3,-1,16,-7
6592027296,-12,-22,-18,-11,-5,3,-23,-4
6592035516,37,51,1,4,11,7,6,3
6592035516,-30,-57,-7,-6,4,4,1,-4
6592050564,10,73,12,3,-15,-18,-17,7
6592050564,-20,-37,-2,-9,-11,-14,-5,-14
6592051168,15,9,-10,7,-38,-1,-7,-1
6592051168,-5,15,-12,-27,18,20,5,6
6592064797,28,6,9,27,14,-4,8,7
6592064797,-7,60,-4,5,-13,-5,0,3
6592072208,-6,10,-6,-5,-2,3,-7,-7
6592072208,-13,34,3,-13,3,-18,-7,-4
6592087325,-12,7,0,3,-12,20,-3,-10
6592087325,12,-37,-4,-11,60,-31,-2,-1
6592095513,0,-20,14,11,-42,18,1,-5
6592095513,14,-11,3,6,11,-10,-23,4
6592110458,-9,-57,-6,-20,-6,-2,1,-3
6592110458,-4,-15,14,18,6,6,6,-1
6592111148,12,-13,-6,10,27,-16,5,2
6592111148,25,-24,-6,-11,15,-1,-3,3
6592124809,-29,-38,-11,-12,-17,-6,-7,-6
6592124809,18,4,-1,12,-18,-4,-2,-1
6592133026,-14,-12,14,35,37,2,-4,-2
6592133026,6,-9,3,34,-5,2,11,0
6592147291,19,24,-6,-36,-4,-5,-3,6
6592147291,-11,3,1,-22,-15,4,4,-6
6592155502,-9,-5,15,-23,-15,-3,-3,-2
6592155502,13,-2,-38,-14,-5,2,5,6
6592170375,-7,20,10,-4,15,9,3,-6
6592170375,-3,2,5,-11,-18,-4,-6,0
6592171295,-2,-7,14,38,20,9,0,-1
6592171295,-8,-14,-9,-3,-18,-10,9,-2
6592184706,-3,-2,-2,-10,-11,4,-1,1
6592184706,8,6,-16,9,5,2,4,-4
6592193068,-10,-3,9,-6,10,6,0,2
6592193068,-4,0,16,10,-12,-2,4,-6
6592207276,-5,-3,-2,13,7,-4,-3,-1
6592207276,1,-12,-16,-9,-2,-2,-4,-2
6592215521,-4,-2,-19,-28,-7,-7,-2,1
6592215521,-2,25,12,6,-5,5,1,-4
6592230494,9,-7,5,5,7,-2,-5,2
6592230494,3,-4,25,19,0,13,2,2
6592231208,-4,-6,-15,-18,-11,-14,-1,0
6592231208,-11,1,12,5,3,-18,-2,-1
6592244787,0,-15,-13,-3,-6,-10,-2,-12
6592244787,-16,-7,-2,5,1,25,2,1
6592253021,10,-6,-10,-8,3,-3,-2,2
6592253021,7,8,0,-1,-1,1,-3,2
6592267348,3,-6,1,0,0,-5,3,0
6592267348,7,-8,-8,-8,-10,-11,4,-1
6592275491,-8,-10,-5,-6,2,-3,-43,-2
6592275491,-3,-13,5,5,0,12,17,4
6592290512,9,5,-12,-2,0,7,-4,4
6592290512,2,3,4,-2,-3,-2,0,-3
6592291161,-18,2,-2,-5,-4,-3,-4,-6
6592291161,-2,5,0,0,1,-3,-31,-6
6592304842,3,-16,-10,0,4,7,19,6
6592304842,1,9,8,0,-2,-8,-3,-4
6592312988,-7,-14,-3,-5,-4,2,17,4
6592312988,-4,-33,-22,-11,-6,-3,-12,-8
6592327295,-4,17,3,2,6,-2,2,5
6592327295,5,1,-7,-7,-9,-6,-9,0
6592335482,26,19,12,12,-1,1,5,2
6592335482,-5,-19,-1,12,13,16,16,2
6592350489,-12,76,17,-16,-8,-10,-16,-1
6592350489,-45,-33,-12,21,3,-4,1,-13
6592351144,16,39,8,2,3,5,3,4
6592351144,-3,-3,-18,-19,-13,-11,-7,-10
6592364802,25,71,31,36,6,3,12,10
6592364802,-30,-71,-9,-34,-2,3,-8,-8
6592372302,21,-38,5,-1,-8,-6,7,7
6592372302,-6,78,-16,-7,6,9,4,0
6592387332,18,13,16,1,-2,-6,-5,-1
6592387332,-11,15,4,8,-4,5,1,-1
6592395500,7,-2,-5,5,6,0,0,-1
6592395500,10,-30,7,1,0,1,4,5
6592409825,-28,2,-11,-13,-8,2,-5,-8
6592409825,34,28,8,10,6,-1,4,9
6592417948,-20,8,-11,-2,-5,-3,0,-7
6592417948,22,4,11,-2,-7,-2,-3,7
6592424785,-9,-36,-22,-18,0,-3,-5,-5
6592424785,-7,53,7,-3,2,-5,1,-4
6592441160,-8,27,-10,-1,-4,-1,-5,-6
6592441160,-5,40,22,-2,7,11,19,-2
6592447335,4,-50,-23,17,9,-11,-16,-4
6592447335,0,55,10,-5,8,3,-5,0
6592456143,-13,-45,-4,-6,-19,2,5,-2
6592456143,8,-19,-5,-12,-20,-12,-4,2
6592469814,-1,-24,-1,7,18,6,-9,2
6592469814,14,-26,-1,-6,-4,3,31,8
6592478620,1,0,3,13,33,6,20,4
6592478620,-19,-18,2,8,-2,-1,-3,-8
6592484799,-5,-17,-13,-20,-30,-14,-7,-5
6592484799,-1,0,-3,-6,34,1,-17,-2
6592499697,-5,1,-6,-13,-72,-5,-11,-5
6592499697,18,44,3,10,35,-4,14,8
6592507266,-12,-35,-6,14,-8,-8,0,-7
6592507266,9,-32,14,-18,-12,2,-5,-2
6592516154,-15,1,-34,-47,39,9,5,-3
6592516154,-3,-15,40,33,-58,-18,-18,-4
6592529847,-31,-49,-11,-17,31,12,6,-8
6592529847,1,-11,10,29,-17,10,1,0
6592538603,14,10,55,56,3,-7,-8,-1
6592538603,-16,-16,-67,31,76,21,2,0
6592544691,3,-4,-5,12,-21,-7,6,2
6592544691,1,-7,-15,-6,-25,-22,-9,-4
6592559812,3,10,2,-6,-5,-17,3,3
6592559812,-10,-11,12,-31,-25,4,-12,-4
6592567281,10,18,19,5,11,16,18,7
6592567281,-2,-6,-13,13,13,3,-1,0
6592576184,-1,7,-3,-8,-1,-11,-11,-2
6592576184,6,-5,2,-9,-2,-7,2,0
6592589785,-4,-2,-20,-24,0,-1,-4,-6
6592589785,-1,6,3,-16,-20,1,-1,-2
6592598687,-2,-3,-8,-2,6,-2,-1,2
6592598687,8,0,-1,-1,-2,-6,1,-1
6592613613,-1,11,8,2,-3,-9,-1,7
6592613613,-13,1,-8,3,1,8,-8,-5
6592615143,24,14,1,1,6,16,-3,4
6592615143,-30,-1,0,-7,0,3,18,1
6592636145,-7,-8,4,-2,-10,-13,-17,-8
6592636145,-1,-22,-4,-2,-3,-12,5,-5
6592637617,-5,-12,-4,-1,7,-13,-34,12
6592637617,21,7,4,-10,-14,8,0,9
6592649781,-4,-2,-3,2,2,-3,-2,-7
6592649781,-12,-12,-3,-1,-3,-12,1,1
6592658671,9,1,-10,-5,-3,7,-18,2
6592658671,-3,-13,-4,0,-2,14,13,-26
6592673005,12,-4,-3,-2,-2,-3,5,9
6592673005,1,12,-1,0,4,-1,2,-13
6592679782,5,-7,4,-6,-7,-14,-11,-12
6592679782,5,2,7,6,2,-8,11,20
6592687258,-15,60,5,-4,-2,7,-12,-29
6592687258,15,-9,-7,-12,-15,-11,5,2
6592696195,-80,-37,-6,6,7,5,7,-18
6592696195,28,51,-1,-6,-5,1,4,6
6592709758,-15,-14,-31,7,3,0,-11,-10
6592709758,6,-8,-11,5,6,8,1,17
6592718675,-13,7,-12,-17,2,-6,10,-4
6592718675,2,-9,19,17,-2,-8,-14,-4
6592733662,13,51,5,-24,-1,4,1,9
6592733662,5,2,3,28,-1,-2,-10,5
6592735134,7,58,57,35,-12,-1,15,0
6592735134,-46,-75,-100,-64,-3,-14,-19,-20
6592747319,27,0,73,52,7,5,7,11
6592747319,4,75,-31,-49,-8,12,9,0
6592756134,-1,-43,-13,20,1,-3,-1,1
6592756134,-11,-8,0,-23,-14,-12,-8,-1
6592769816,1,-2,11,1,-13,6,10,9
6592769816,0,24,23,16,5,0,-9,-5
6592778634,15,-13,-6,-3,-14,-8,-1,-3
6592778634,12,11,-1,27,40,12,3,6
6592793604,-11,-46,-29,-19,-5,2,5,-1
6592793604,19,2,11,-20,4,-10,-3,1
6592795103,-27,31,-11,18,-6,17,9,-1
6592795103,-4,20,10,-10,6,-26,-16,-10
6592807265,-3,66,-4,-8,-22,11,-7,-2
6592807265,3,52,4,32,31,21,11,5
6592816173,6,12,8,-31,18,-22,-1,3
6592816173,19,-17,0,26,-13,26,4,0
6592829761,-11,-77,-13,-7,13,-7,-19,5
6592829761,-11,-74,8,0,6,-14,35,-2
6592838672,-13,-79,-25,-31,-26,20,-1,-10
6592838672,1,-27,25,20,11,-11,-1,6
6592853543,19,-9,-8,-37,-9,-10,-9,-3
6592853543,-5,-21,-8,26,4,8,-14,-1
6592855132,-1,-3,-9,-25,3,0,4,-2
6592855132,-2,10,14,27,-37,-8,-7,-2
6592867148,5,7,-3,-15,8,-3,2,-3
6592867148,-14,-9,-5,26,16,1,-8,-3
6592876193,21,22,1,2,10,-7,10,4
6592876193,-8,-3,3,-46,-25,-1,-11,-7
6592889823,-6,-10,1,-12,-14,-11,12,0
6592889823,-1,-4,-36,-23,2,12,-2,1
6592898657,7,4,11,12,13,5,-4,-1
6592898657,-2,2,-7,43,2,-4,2,-1
6592913483,0,19,6,39,7,-13,-5,-2
6592913483,-8,-11,22,-11,-1,0,-8,-2
6592915118,13,8,-4,-12,-15,0,1,4
6592915118,-6,5,11,-6,5,-4,-7,-3
6592927094,-5,-5,-3,-6,28,8,11,-2
6592927094,4,4,0,-6,-22,-6,-6,1
6592936216,1,-1,-8,14,9,-14,0,0
6592936216,2,-5,9,-36,-3,17,6,-1
6592949726,-3,2,7,31,-2,3,-1,1
6592949726,-6,-7,9,-12,-10,-7,-3,-2
6592958678,3,9,2,-19,-9,0,1,1
6592958678,1,6,-10,12,6,5,2,-1
6592972258,4,-8,-1,-3,-9,2,0,1
6592972258,-9,-11,-14,0,1,3,2,-2
6592981178,-10,-6,0,1,4,1,5,4
6592981178,-3,-1,-1,4,-5,-16,-14,-10
6592987300,-1,-7,-7,-6,-6,-2,2,1
6592987300,-1,-5,3,-11,-7,-2,5,1
6592996160,9,1,-1,16,12,7,-5,-10
6592996160,-2,8,6,-12,-2,6,6,9
6593009761,-8,0,-9,-8,-11,-13,-6,-7
6593009761,0,3,6,1,-11,-15,-9,-8
6593018601,-3,-12,-14,-2,-1,10,3,3
6593018601,0,14,9,2,-3,-4,-5,0
6593033633,4,-5,-19,-9,-2,1,-3,0
6593033633,-3,-4,8,2,-5,-6,1,20
6593035141,13,2,-5,-4,-1,-5,3,10
6593035141,-13,-4,-4,-8,-1,5,5,-5
6593047256,-1,-14,2,6,2,2,-13,-21
6593047256,-3,-2,-5,-2,0,0,4,-5
6593056128,-12,2,5,-3,-4,-1,2,6
6593056128,20,11,6,3,2,-3,-3,11
6593069723,-18,-11,-6,-1,0,5,21,3
6593069723,22,1,-21,-9,-12,-7,-20,-3
6593078662,-4,-1,5,9,0,-3,-2,-6
6593078662,-4,77,4,-13,-1,-1,2,-4
6593093608,-16,-32,-9,3,-3,-4,-16,-4
6593093608,18,20,8,5,-5,-4,3,1
6593095083,3,18,7,9,9,5,1,-1
6593095083,14,27,-14,-2,10,2,2,-1
6593107278,-9,-26,34,15,11,2,6,7
6593107278,-5,-42,-39,-24,-23,-10,-8,-4
6593116145,-27,-6,-28,32,17,-2,0,-8
6593116145,18,-37,25,6,-9,3,0,5
6593129768,20,54,-1,-18,16,9,6,7
6593129768,-7,-36,-25,4,4,0,0,-5
6593138622,6,5,24,2,-8,4,-5,-5
6593138622,20,44,-2,0,-11,-5,3,5
6593153543,-28,-65,-23,4,6,6,9,0
6593153543,-27,23,9,10,3,0,-7,-9
6593155134,13,15,-18,-29,-12,-9,-7,-3
6593155134,7,-9,6,16,8,4,23,2
6593167257,-4,9,4,-3,-8,-10,-20,2
6593167257,-10,7,9,-12,-15,2,-7,-7
6593176133,-1,-15,1,3,11,-5,0,2
6593176133,-8,-31,-5,3,-1,-5,-13,-11
6593189779,18,20,-2,-5,4,-1,-14,2
6593189779,-14,4,19,-11,1,1,0,-4
6593198639,8,-4,-27,-9,-24,-22,-4,-1
6593198639,-23,-15,-3,-5,26,20,-12,-3
6593213630,20,26,-14,-23,31,-30,31,5
6593213630,4,13,15,26,-64,13,-23,-2
6593215094,-2,16,21,-6,13,4,8,-1
6593215094,-22,-21,4,35,34,-10,-10,-4
6593227215,-5,-8,-19,-7,-56,-7,-13,-8
6593227215,17,9,26,76,34,15,16,7
6593236120,-21,-33,-42,-79,6,-4,-7,-7
6593236120,0,-5,13,22,-27,-7,-2,0
6593249645,-4,9,-20,-4,2,-3,-8,-7
6593249645,17,15,22,4,-2,-6,9,-2
6593258641,-2,18,4,2,-56,-7,-8,0
6593258641,-8,-1,-17,43,38,-3,-4,-4
6593272942,-10,-14,-1,-11,9,11,2,0
6593272942,-1,-21,3,15,22,-5,-1,-1
6593279728,-2,-10,32,62,15,9,7,-1
6593279728,-8,-26,-16,-68,-22,-9,-4,-7
6593287216,15,-2,1,-27,-35,-4,-2,-1
6593287216,-16,-18,-15,-11,36,-2,-1,-2
6593296147,18,-2,0,-16,-22,-2,-1,4
6593296147,-13,-22,-16,60,12,-2,-2,-5
6593309700,0,-6,16,39,22,5,1,3
6593309700,-3,0,-25,-53,-10,4,-13,-2
6593318675,-17,-24,-21,-17,-1,13,17,-9
6593318675,-3,-27,13,-6,-4,8,-11,1
6593333615,6,31,19,12,-1,0,5,6
6593333615,-4,16,-7,-1,1,-13,25,5
6593335127,-1,-6,7,8,5,-7,-3,10
6593335127,8,12,-6,-38,-19,-5,11,-32
6593347208,-12,-6,10,20,0,5,-56,24
6593347208,12,1,-2,-27,-11,-1,27,12
6593356134,21,-3,-2,1,6,8,25,-15
6593356134,-5,-8,8,-13,-9,-11,-10,-13
6593369793,-37,-28,-15,-7,-5,12,30,0
6593369793,6,-2,6,4,4,-17,2,54
6593378599,7,-1,7,4,11,26,8,-31
6593378599,1,2,-5,-4,-3,-5,-28,28
6593392911,17,42,12,8,2,-9,21,-20
6593392911,13,19,1,-4,4,20,-7,-3
6593399784,-9,-23,3,3,-1,-17,-4,10
6593399784,-14,12,-22,-36,-22,-7,2,0
6593407290,2,31,16,-6,-2,9,9,11
6593407290,-24,-39,-14,9,14,2,9,-23
6593416118,48,67,7,-10,2,11,-22,15
6593416118,-39,-43,1,2,-3,7,2,-12
6593429787,-18,-97,-55,-30,-16,-10,-11,-11
6593429787,14,102,23,5,5,2,-3,-5
6593438594,4,77,6,0,-2,-12,-8,-5
6593438594,-1,-43,24,5,-6,-2,3,4
6593452859,26,32,40,32,-4,-3,-7,-5
6593452859,1,-61,-50,-16,-3,-5,-14,-5
6593467905,-19,-2,-45,-68,-1,-5,-7,0
6593467905,20,59,5,10,3,9,12,18
6593468620,17,66,21,6,-7,-6,1,4
6593468620,-40,-14,-25,-24,-4,-4,-11,-23
6593476148,20,93,45,19,-12,-5,2,11
6593476148,23,-9,6,21,9,3,5,8
6593489746,-15,1,-64,-50,8,7,6,-14
6593489746,5,-40,62,62,18,5,2,3
6593498645,-8,-52,7,32,-11,-16,-9,-1
6593498645,4,-15,-61,-55,-11,-6,4,1
6593512963,-10,13,22,65,13,6,-2,-1
6593512963,-4,-16,-27,-80,-30,-11,-13,-4
6593519771,-9,-4,-22,-9,18,-1,-8,-13
6593519771,27,46,24,67,-11,-19,-6,7
6593527243,-12,16,2,-38,-5,20,22,4
6593527243,1,56,0,-12,12,3,-43,4
6593536132,-39,-38,3,22,14,-18,35,-23
6593536132,13,1,-9,-32,-61,3,-25,2
6593549749,14,-21,2,-19,0,-19,1,-8
6593549749,-31,-31,-3,-8,-47,10,-8,-3
6593558642,15,-69,3,29,8,17,3,11
6593558642,-15,-36,2,24,59,-3,2,-7
6593572916,9,-20,8,0,0,4,-9,6
6593572916,-2,-32,7,17,9,-10,-27,-9
6593579730,-6,-17,-4,-20,-25,-22,-60,2
6593579730,-2,15,-16,-11,-3,5,25,0
6593596075,6,-16,-3,-50,-19,-15,-7,0
6593596075,4,3,1,-9,24,-12,12,-6
6593597601,-16,-9,-5,2,-3,5,-16,-4
6593597601,-4,4,15,15,6,18,3,-1
6593609739,8,0,-9,18,9,6,8,6
6593609739,-11,-9,-8,19,20,-9,4,-8
6593618614,-4,-9,6,-23,-13,5,16,5
6593618614,-7,-4,-9,-49,-2,-10,5,-5
6593632911,-9,-11,10,54,-8,1,-10,-9
6593632911,20,34,0,-45,30,15,28,6
6593639758,-7,-12,2,15,-13,0,-5,1
6593639758,-14,-29,10,-9,-5,-8,-6,-10
6593656138,4,23,5,-3,-7,3,1,5
6593656138,0,5,-13,20,-20,-12,-2,-3
6593657644,1,3,1,28,-16,-5,2,1
6593657644,-11,3,-12,-59,-4,1,0,0
6593669716,-3,4,3,4,16,3,2,2
6593669716,11,-2,6,2,-8,3,12,-2
6593678645,5,14,4,-10,9,4,-4,7
6593678645,-11,4,-5,35,-14,5,-2,-7
6593692936,-3,-7,-2,-1,9,-4,-6,-5
6593692936,4,-7,-7,-6,-11,0,1,0
6593699733,8,19,-1,12,9,-6,-4,-3
6593699733,-2,3,10,5,5,-5,3,5
6593715993,-14,-23,-20,-17,-11,-6,-14,-5
6593715993,-4,-2,11,9,0,-5,6,-15
6593717596,21,4,5,-4,-1,15,45,27
6593717596,17,7,-2,-7,1,1,-12,0
6593729784,-15,-8,-5,-6,-5,-23,-4,7
6593729784,9,4,6,17,-24,27,33,-15
6593738597,-26,-13,-12,-5,17,-1,-24,-17
6593738597,4,5,6,15,27,34,100,19
6593752905,14,-7,-1,11,-3,-10,1,38
6593752905,3,11,4,2,0,-5,13,-9
6593759693,-13,-8,-9,-15,-5,-6,8,-19
6593759693,12,1,-1,-6,-8,-6,-41,6
6593776081,-21,-11,8,6,-1,-8,-45,-4
6593776081,6,-1,4,0,-2,0,34,11
6593777572,4,5,-5,-5,-1,-4,-25,6
6593777572,-6,6,12,7,-2,-13,-15,-16
6593789744,34,-12,-15,-1,1,10,9,-6
6593789744,16,43,-12,-8,-5,-14,-34,1
6593798638,-13,31,38,45,5,8,8,1
6593798638,-22,-74,-65,-34,7,-3,-15,2
6593812950,-16,-16,-8,-22,-14,2,12,-17
6593812950,4,-34,30,26,6,4,-4,13
6593819734,-10,29,-42,-13,7,-6,-3,-4
6593819734,16,-28,18,19,-2,-2,0,2
6593836087,10,40,32,-12,-24,-1,7,-7
6593836087,-7,-31,-21,30,34,1,-4,4
6593837593,-2,2,24,6,2,2,0,4
6593837593,-1,20,-5,-14,3,3,-4,-3
6593849756,10,36,-7,-7,12,7,-3,-4
6593849756,6,0,23,9,-12,-11,-13,4
6593858596,30,35,6,3,-20,-4,-4,2
6593858596,-31,-24,-1,-7,11,1,6,-5
6593872191,-8,-24,-47,-50,-19,-8,-1,-8
6593872191,-5,20,-9,-2,9,9,1,3
6593881088,-15,-64,-15,0,4,-4,12,5
6593881088,14,51,28,35,-4,0,-13,-1
6593896016,-9,10,14,27,5,-24,3,-2
6593896016,-7,-18,-27,-37,1,-6,-24,-5
6593897603,30,36,-8,-3,-17,21,30,3
6593897603,-6,35,9,-2,0,-24,5,9
6593909643,-7,-1,2,19,20,33,38,-1
6593909643,2,14,-2,0,16,-13,-35,1
6593918599,-19,-20,5,-15,-6,15,13,1
6593918599,6,-10,5,19,-20,-21,-6,-6
6593932896,0,-26,-23,-25,4,27,16,-2
6593932896,1,-11,4,23,5,-11,-5,-1
6593939631,-6,-32,10,-23,9,8,-8,-2
6593939631,-10,-10,-21,-33,8,-26,-6,-8
6593956057,-1,-2,12,1,-43,-7,-10,-2
6593956057,-7,0,1,-21,-26,5,-20,0
6593957678,1,-6,-8,27,29,2,18,-3
6593957678,-1,6,3,29,21,1,-4,-1
6593978519,8,5,6,-9,-4,-12,-15,-3
6593978519,-5,6,-7,-58,-29,-7,-2,-6
6593980122,-16,-17,-19,-24,0,-6,-5,-3
6593980122,-5,-30,-15,-44,-20,26,3,1
6593992939,1,-12,2,44,4,-8,-10,-4
6593992939,-4,-2,14,42,0,4,9,-2
6593999742,1,5,-1,-35,7,-14,-14,-2
6593999742,0,2,7,-20,-8,6,2,-2
6594016094,14,25,3,-6,-1,2,-4,4
6594016094,-23,-11,-30,-13,-6,-4,16,-4
6594017611,15,4,7,-12,-22,-5,-9,0
6594017611,-11,16,11,28,33,-1,-8,-2
6594038644,8,-3,8,39,17,-1,7,7
6594038644,1,16,15,32,-4,13,8,1
6594040058,-7,-10,-16,-60,-1,-14,-20,-9
6594040058,17,18,7,14,-19,3,13,9
6594052936,-22,-24,11,-4,9,9,-2,-10
6594052936,4,0,-9,-3,14,6,-6,7
6594059772,3,-1,6,32,-13,-16,-16,-3
6594059772,-3,20,-9,1,5,9,8,-4
6594075981,7,15,-5,-6,12,5,23,3
6594075981,-5,-29,-3,-5,-10,-23,-1,3
6594077548,-14,-1,8,14,1,11,-43,-21
6594077548,-13,-15,-4,-11,-12,-1,10,10
6594089744,7,0,-7,0,12,-14,-16,3
6594089744,-3,-25,-1,-14,-15,3,-13,-25
6594098683,31,-21,-5,12,2,-16,94,51
6594098683,-2,-7,-4,-4,3,31,-9,-24
6594112935,-22,-23,15,10,-6,-7,-36,16
6594112935,-2,1,-6,1,5,-25,30,-3
6594119732,6,-2,0,5,6,9,-13,-16
6594119732,8,2,-10,-7,-13,2,0,-5
6594136058,1,29,7,-9,1,15,27,4
6594136058,-1,-8,13,3,2,-1,-6,15
6594137620,-22,0,-30,-3,-3,9,-15,-7
6594137620,10,33,10,4,-9,-14,-4,4
6594149760,2,-34,-7,-1,-3,0,-23,-13
6594149760,22,70,7,2,0,-1,13,9
6594158605,-39,-25,-11,2,10,3,-5,0
6594158605,27,20,-15,9,-3,-7,-4,0
6594172199,-3,32,0,-9,-7,-10,-2,-4
6594172199,-19,-89,17,8,2,9,-10,-9
6594181093,23,47,39,7,-9,-8,-7,-8
6594181093,-23,54,-46,-2,5,2,-5,10
6594196056,-23,-22,22,-5,14,11,6,-20
6594196056,-5,-79,-55,-18,-17,-6,0,8
6594197590,-4,79,-3,25,-11,-7,-31,-11
6594197590,1,-10,21,-19,-9,-18,-5,-4
6594209771,36,111,41,9,-21,-14,-8,9
6594209771,-90,-31,-74,-60,3,1,-8,-32
6594218632,24,-22,62,27,8,7,2,7
6594218632,2,-16,6,8,0,7,7,7
6594232946,-1,47,-90,-51,0,0,2,-2
6594232946,43,46,41,78,28,6,1,18
6594239772,-3,8,-31,-61,-21,-11,17,16
6594239772,-10,6,54,33,16,-23,-18,-15
6594256067,-20,-60,5,22,-11,26,-1,-4
6594256067,11,45,0,-22,-9,-6,-3,-1
6594257583,-4,5,13,38,-6,1,-8,-6
6594257583,7,1,-14,2,24,0,-1,12
6594269710,-3,-2,-7,2,-1,-14,-18,-1
6594269710,20,62,15,-15,-6,17,42,9
6594278586,1,23,1,-3,19,19,5,0
6594278586,-17,-34,-17,-24,-33,-13,-6,-4
6594292950,4,-66,4,-5,2,13,39,0
6594292950,18,-25,3,1,0,-32,-25,-2
6594299640,-17,-68,-22,-7,1,9,-1,-4
6594299640,5,-42,5,26,28,20,36,3
6594315410,5,-18,0,3,49,1,-24,-2
6594315410,-32,11,17,-11,-45,-16,2,-5
6594322274,-8,-35,-16,-31,-2,-5,2,-6
6594322274,15,-5,-6,-2,6,7,-20,-5
6594329763,-11,-7,6,15,-22,-2,14,2
6594329763,19,21,3,8,10,-23,-5,3
6594338593,-14,-17,-12,-11,-27,11,-12,-11
6594338593,2,19,8,-6,-25,-12,9,4
6594352891,0,-6,-12,-32,38,15,1,-1
6594352891,10,26,21,16,-3,-1,-1,4
6594359663,5,3,-23,4,16,3,5,3
6594359663,0,12,5,54,-15,-14,-15,-1
6594375293,-14,-1,-28,-53,6,-8,-2,-6
6594375293,-11,-12,10,27,-8,14,-10,-9
6594382250,9,9,11,28,10,-8,2,5
6594382250,-2,-7,-6,-62,2,5,-7,-3
6594398508,6,3,-27,16,-25,-16,-3,0
6594398508,-6,-7,-4,-4,9,5,-12,-6
6594400042,-1,-5,2,26,-9,-9,-3,-1
6594400042,-5,-8,-8,-30,-10,1,-5,-6
6594412195,4,13,23,22,-1,-13,-1,0
6594412195,-2,7,-6,-25,3,10,9,0
6594421123,4,-3,13,10,3,-5,-5,-2
6594421123,-2,-3,-2,-4,-9,0,-2,-1
6594435421,8,7,11,5,0,2,-4,-5
6594435421,7,1,-5,0,-2,10,-3,6
6594442208,-9,-6,8,-10,-8,-10,13,-4
6594442208,-39,-21,-10,-7,3,-6,-28,-4
6594458558,4,-5,-1,15,-8,-3,31,2
6594458558,27,13,7,4,-2,-3,-12,0
6594460093,-8,-1,-4,-12,5,-5,-3,1
6594460093,1,6,1,-1,3,7,-3,-5
6594472908,-10,-5,4,14,-6,1,0,2
6594472908,2,-3,7,0,8,19,15,2
6594479686,10,-6,-15,-13,2,-9,-16,-4
6594479686,0,-5,-8,-1,-6,5,59,7
6594495387,4,-3,8,4,-10,-13,-17,-3
6594495387,3,8,-1,-7,1,9,15,-2
6594502094,-9,-7,-8,-8,-4,-1,2,0
6594502094,-16,-18,9,9,-4,-4,-11,-4
6594518545,16,9,-4,-11,-9,-6,-12,-2
6594518545,-29,-25,0,-1,2,-3,11,4
6594520075,3,10,-17,3,3,-18,-19,-3
6594520075,-7,1,-7,-4,0,9,-8,-5
6594532891,36,-18,18,9,0,2,30,13
6594532891,-4,63,-12,-9,-1,-3,-30,-10
6594539761,-3,73,18,-3,-4,1,2,-2
6594539761,-4,-88,-26,-3,1,-6,-13,-3
6594555411,-1,2,6,12,0,4,-3,-5
6594555411,1,8,-19,-16,-3,1,1,-1
6594562236,19,-30,-9,27,7,2,0,9
6594562236,23,73,25,-12,-5,-3,8,8
6594578597,-33,-89,10,25,10,4,-15,-5
6594578597,-14,-41,-42,-38,-6,-5,-5,-10
6594580089,-2,-33,13,-23,-9,-2,-1,0
6594580089,2,29,-1,17,2,-1,-8,-5
6594592276,17,-29,5,30,-11,-13,-7,1
6594592276,-32,30,15,-10,3,0,13,1
6594601089,12,-24,-36,-44,5,5,-15,-1
6594601089,8,31,15,-28,-16,-7,-4,1
6594615381,-29,-8,-9,25,-9,-2,-3,-4
6594615381,21,-9,-4,14,14,-5,-2,-1
6594622166,-5,18,3,12,-10,-7,1,-4
6594622166,6,57,3,9,23,28,-4,-6
6594638535,-5,88,-1,-18,-4,-2,-8,12
6594638535,11,-6,-2,-3,-30,-5,-11,1
6594640041,-30,-6,12,5,11,5,9,-4
6594640041,-1,-27,-6,28,16,-6,8,-6
6594652190,-16,-28,-3,-12,4,-2,-21,-11
6594652190,21,-7,18,19,9,22,52,20
6594661097,2,-36,-1,-8,10,-12,-21,-2
6594661097,-3,-23,-3,-5,-24,22,8,-7
6594675400,5,6,-3,-11,1,-17,-25,0
6594675400,2,-26,2,40,28,-18,-12,1
6594682101,-9,-3,-15,-22,-49,19,5,-9
6594682101,-7,-20,-13,-19,-21,-26,-7,0
6594698585,0,17,2,0,16,7,9,-3
6594698585,3,-4,13,-7,-25,-22,-19,-5
6594700113,0,9,3,26,36,3,8,2
6594700113,-11,-31,0,2,-25,5,-11,-3
6594712097,1,13,17,-14,10,27,23,6
6594712097,-1,0,-27,-10,18,0,-10,-5
6594721088,-2,-1,0,-19,-5,-5,8,1
6594721088,20,14,-23,-34,-12,-22,-7,4
6594735373,1,14,-10,-6,-19,-17,-1,-3
6594735373,-5,-12,26,62,25,32,10,2
6594742183,15,16,-1,-26,-1,0,-1,5
6594742183,-9,-20,-22,-30,-3,-10,-7,-4
6594758556,-3,17,-17,-9,-12,-1,2,-1
6594758556,-2,3,33,36,-6,5,0,0
6594760066,-11,4,-9,15,-1,-29,-4,-4
6594760066,7,-9,20,29,12,29,-6,-4
6594772164,-2,-2,-9,-5,5,-7,1,0
6594772164,0,2,-1,-29,-14,-7,-13,-5
6594781080,-2,10,11,7,-4,2,5,-3
6594781080,13,7,11,9,8,-19,-3,5
6594795410,-14,0,-1,-3,6,17,3,-7
6594795410,-3,-12,-16,-30,-16,-11,-12,-7
6594802097,5,-4,-1,14,-1,-5,2,4
6594802097,-1,9,1,10,9,-3,-11,0
6594818588,-3,-14,-1,-12,-13,-2,1,-2
6594818588,1,1,-1,-1,-1,-10,-35,-3
6594820115,6,6,-3,2,5,26,44,5
6594820115,3,22,10,9,7,-10,-4,8
6594832181,-6,-29,8,9,-2,-24,-11,-9
6594832181,8,-3,-12,-15,1,32,38,17
6594841095,-31,-13,-12,4,4,14,-11,-22
6594841095,-14,-16,1,-3,-4,-11,4,4
6594855364,22,-18,-9,-7,-3,-9,4,21
6594855364,-3,3,-4,-4,0,-8,-22,-51
6594862051,29,7,13,1,-3,-1,-21,39
6594862051,-41,-22,3,9,4,19,23,-36
6594878516,-3,-1,-4,-6,-3,-1,-13,-4
6594878516,9,36,15,1,1,-6,2,-2
6594880040,-13,6,6,5,3,0,-3,-5
6594880040,30,38,13,9,6,-2,3,13
6594892153,-22,-28,-25,-27,-10,1,-14,-8
6594892153,8,36,13,-2,-4,-5,4,12
6594901076,-9,-82,-3,37,5,2,0,-4
6594901076,24,69,-5,-37,-6,-17,-11,3
6594915243,-17,-100,-44,-11,-22,-6,-2,-1
6594915243,-10,28,22,-15,19,6,4,-2
6594922060,17,67,-6,6,-3,6,11,5
6594922060,11,-90,13,15,16,4,-1,10
6594938493,28,89,2,-20,2,6,7,3
6594938493,-29,29,-10,-6,2,-4,0,-3
6594940047,-4,-66,-89,-71,-23,-24,-27,-13
6594940047,20,79,76,39,0,4,3,6
6594952204,21,40,13,14,10,7,10,12
6594952204,-32,24,-8,-18,20,17,3,0
6594961074,33,88,-2,-40,18,5,10,-1
6594961074,-41,-52,-38,1,-12,-12,-8,-15
6594975358,4,0,-36,15,-7,-4,-11,-11
6594975358,35,28,56,11,-12,-8,5,17
6594982193,-9,-20,-2,4,-20,-14,-5,-4
6594982193,2,-22,5,21,6,3,3,0
6594998461,-13,3,0,-7,4,1,6,-2
6594998461,-11,-66,-49,0,-26,-11,-18,-7
6595000032,-6,28,17,31,-7,0,11,1
6595000032,0,-11,0,-29,15,-10,-1,3
6595012183,-1,27,-27,-8,-48,17,2,-4
6595012183,-3,-3,-10,2,27,22,4,1
6595021068,8,-19,30,28,46,-17,1,1
6595021068,1,16,-24,-39,-106,0,-6,-7
6595035270,-6,-28,42,105,80,3,13,2
6595035270,-3,-46,-29,-23,-46,-32,-23,-6
6595042193,-3,-28,34,17,-10,21,2,3
6595042193,-4,-25,-2,26,49,4,5,3
6595057762,-1,-12,12,-42,-11,-16,-11,-2
6595057762,-2,-35,-38,-22,-14,21,11,0
6595058667,-5,16,22,-12,-5,-13,-9,-6
6595058667,-3,-1,-6,-39,-13,-9,-1,-1
6595080318,-1,24,-17,16,-11,3,6,-3
6595080318,5,10,-4,11,30,-5,6,5
6595081022,-11,-7,-3,-29,0,-3,-8,-6
6595081022,-3,4,-18,-15,23,13,6,1
6595096040,4,41,48,54,-11,-10,-4,-1
6595096040,13,-23,-36,-18,-8,-5,-1,4
6595102092,-5,-1,-16,-13,-20,-7,-5,-3
6595102092,-7,19,-25,-41,-5,-15,-11,0
6595117759,-31,4,67,5,-15,-9,-6,-12
6595117759,10,-14,-18,-31,0,13,9,6
6595118646,11,18,20,11,0,7,3,2
6595118646,-1,4,-4,52,21,-1,-2,-1
6595140383,11,1,-21,-70,-8,-6,-9,1
6595140383,-15,-26,28,5,-8,-4,-2,-4
6595141041,-7,4,-12,10,13,2,9,-2
6595141041,2,-13,-3,11,-22,-10,-6,0
6595156102,-8,-7,-8,0,14,0,-5,-6
6595156102,3,25,23,31,-7,-6,9,1
6595162125,0,-6,-4,21,27,20,9,1
6595162125,-6,-16,-9,-3,2,3,3,-1
6595177829,8,10,0,-23,-17,-12,-4,2
6595177829,-1,5,9,8,12,-6,-1,-1
6595178580,-3,-9,1,-1,-11,-28,-4,-1
6595178580,-1,26,9,-7,-14,36,-7,1
6595200371,-1,-4,-12,-2,28,7,6,1
6595200371,-7,-10,7,7,-22,-9,-11,-5
6595201063,-7,-6,-11,-8,-7,-12,1,-5
6595201063,-1,1,-3,-5,8,3,-6,-1
6595216555,0,-14,-5,2,4,7,5,0
6595216555,2,-6,2,3,-1,2,0,2
6595222121,-1,14,6,-5,-9,-7,-12,-5
6595222121,4,0,6,-3,3,0,8,0
6595237835,-12,-22,-3,7,9,7,2,1
6595237835,-3,2,-24,-22,-4,-11,-5,-4
6595238550,1,8,-13,-13,-1,9,-4,0
6595238550,-3,-16,-1,4,-8,-15,0,-1
6595260330,7,0,1,-2,4,0,6,4
6595260330,1,6,8,19,17,11,-1,-1
6595261040,-15,-7,6,6,8,7,-1,-6
6595261040,-7,-20,-6,-1,-1,-4,2,0
6595276059,8,28,0,-20,-11,-6,-4,-2
6595276059,-4,0,5,6,-8,-13,-1,0
6595282229,-1,-18,1,9,8,10,0,-1
6595282229,8,12,-4,3,1,-9,1,4
6595297096,-10,-4,4,-1,5,19,2,-3
6595297096,1,-4,0,-5,2,-4,2,2
6595304606,7,5,-2,-2,-10,-15,-11,-1
6595304606,3,4,-4,19,10,-5,-2,1
6595320359,-1,-19,-7,2,1,7,8,-3
6595320359,0,7,2,-7,-1,-1,-2,-1
6595321043,-8,3,-1,-5,-9,2,-2,-3
6595321043,-3,-6,-7,-14,-4,-11,-4,-7
6595336091,0,0,-2,3,-9,-4,-4,-3
6595336091,2,2,10,8,9,4,1,2
6595342134,2,-2,4,7,6,6,5,5
6595342134,-4,-9,-3,-3,0,0,-1,-2
6595357223,-2,-8,-3,-6,-2,-7,-4,-3
6595357223,-15,3,8,0,-12,-5,-4,-8
6595364722,9,5,-2,6,6,4,4,3
6595364722,3,-1,7,8,13,10,2,2
6595380222,-5,7,-3,-17,0,-2,-2,0
6595380222,0,7,6,23,-10,-9,-4,-1
6595381023,0,-7,-9,-23,-20,-9,2,-2
6595381023,-4,8,3,-2,8,5,3,-3
6595396038,6,-4,3,16,3,1,2,3
6595396038,-3,-11,-4,-1,4,0,-5,-2
6595402100,4,6,-4,-5,-8,-8,-7,-5
6595402100,6,-4,-1,2,-9,-5,7,1
6595417158,-1,-4,-4,-10,-4,1,-2,1
6595417158,-9,28,0,5,7,-4,1,0
6595424597,-11,-41,-2,-1,-3,3,-2,-4
6595424597,4,-3,-2,-4,-2,3,-2,-3
6595447895,1,53,3,-2,-4,-11,-8,0
6595447895,2,-15,0,1,1,-6,-1,-1
6595448526,-5,5,5,3,4,17,5,2
6595448526,-2,14,-1,4,4,-1,-4,1
6595456025,-2,-14,-1,-10,-9,-7,-2,-4
6595456025,2,-26,-9,-9,-3,-1,-2,-2
6595462141,-3,-1,-3,16,6,1,0,-1
6595462141,0,6,14,5,-4,-1,4,0
6595477154,2,-30,-12,-6,0,2,-10,-1
6595477154,-1,-4,1,-7,-5,-5,1,-1
6595484634,-4,12,0,-7,-4,-5,-8,-2
6595484634,-5,-11,-3,1,-2,7,5,0
6595500334,1,-11,-2,0,7,3,-1,0
6595500334,5,13,1,-2,-2,-1,0,-3
6595501006,-1,15,2,1,-5,-2,0,-1
6595501006,-7,-4,-6,-14,-6,-10,-8,-4
6595516023,4,-9,2,1,-12,-5,-1,-2
6595516023,-4,-21,-6,-6,2,10,1,0
6595522182,2,10,2,8,8,4,5,0
6595522182,1,-7,-7,2,7,0,0,0
6595537179,2,-16,0,-6,0,-4,1,1
6595537179,-2,18,0,-4,-11,-4,-3,-2
6595544656,2,-2,-2,-3,-11,-12,-8,0
6595544656,8,-7,-2,-5,-8,2,-2,-4
6595560328,2,16,0,8,14,4,10,2
6595560328,-1,3,2,9,14,16,-4,2
6595561045,-21,-20,-8,-2,0,-8,-1,-4
6595561045,0,-11,0,4,-4,-3,-3,-2
6595576065,5,11,-8,-11,-8,-5,-3,-2
6595576065,7,0,4,3,3,-3,1,1
6595582114,5,-8,2,-5,-2,3,1,0
6595582114,7,17,-2,-8,-13,-11,-7,3
6595597166,4,-1,4,9,4,4,3,-1
6595597166,-18,-10,2,-14,-8,-5,-5,-12
6595604684,0,-5,-3,18,15,10,10,8
6595604684,-7,-2,-3,-4,7,-4,0,-2
6595620374,1,-5,-2,3,0,0,-4,2
6595620374,9,0,-4,-3,-5,4,5,0
6595621040,-2,10,1,-12,-7,4,-11,-5
6595621040,-1,6,-1,-5,-4,-10,-2,0
6595634547,-5,2,0,6,-2,-6,0,-1
6595634547,-2,-8,-9,-8,-2,5,-2,-1
6595642192,-2,-8,2,8,1,-5,0,-1
6595642192,-4,-9,-1,1,8,9,1,1
6595657150,-2,2,2,3,-5,-4,-5,-3
6595657150,0,-2,-6,-2,-4,-5,2,2
6595664671,4,-4,0,-9,-7,0,-1,-2
6595664671,-1,-3,0,6,-1,0,0,-4
6595680311,-3,-4,-1,0,4,0,-2,2
6595680311,-11,-7,2,-6,-4,-1,0,-1
6595681023,9,3,1,5,2,1,0,-2
6595681023,-2,4,6,3,-1,1,-5,-2
