timestamp,emg1,emg2,emg3,emg4,emg5,emg6,emg7,emg8
7158500153,5,13,-5,-4,-3,-6,1,16
7158500153,-8,0,-4,-3,-1,-6,-11,-1
7158500927,16,-28,-7,-2,-3,-7,19,4
7158500927,11,27,4,4,0,-3,-3,4
7158506590,2,38,2,-4,-2,-2,-5,-12
7158506590,-29,-75,-13,-7,-5,-4,-4,-7
7158508692,-6,-11,10,5,-1,3,-3,3
7158508692,7,63,7,4,2,-1,0,-6
7158511554,34,-69,-4,-17,-7,3,0,11
7158511554,-5,81,16,29,11,6,11,-5
7158520201,-36,54,-44,-16,1,-5,-5,-9
7158520201,8,-20,3,-12,-3,1,6,8
7158535261,-36,-30,17,36,-8,0,10,-10
7158535261,52,37,-28,1,19,1,-18,7
7158542188,-16,-52,9,-28,-15,-7,-10,-1
7158542188,-2,37,11,45,10,4,9,7
7158550254,-2,-37,-15,-9,5,-3,-7,-6
7158550254,-28,4,29,28,-8,-4,5,-2
7158565937,18,44,19,-1,15,8,-1,-4
7158565937,-2,-41,-25,-21,-2,-4,-13,3
7158571654,-1,53,23,1,2,12,18,4
7158571654,4,-59,-30,-17,-13,-9,-4,-9
7158619722,12,35,7,6,-4,-3,-19,1
7158619722,-12,15,6,-8,8,7,11,2
7158620561,1,-6,7,18,22,13,7,3
7158620561,-1,18,-2,-8,3,2,0,-1
7158621459,6,33,4,0,-22,-22,-13,1
7158621459,-8,38,4,25,-4,-2,-4,1
7158624566,8,26,-13,-39,0,0,7,-2
7158624566,-10,-4,4,5,1,-1,6,-2
7158631257,0,-36,-4,2,25,-12,-9,-1
7158631257,20,-29,-2,-5,-44,1,-4,0
7158638825,-24,-55,-3,6,22,8,12,-3
7158638825,4,-32,0,11,22,10,-40,5
7158647741,-7,-28,6,-10,-29,3,21,-2
7158647741,8,-29,-6,18,39,9,6,0
7158662094,15,20,5,-11,-15,-16,-25,0
7158662094,-7,-12,4,-12,-4,10,16,-5
7158668906,-7,-9,11,44,2,9,0,-3
7158668906,-10,-18,-17,-19,29,-7,7,-2
7158676359,8,4,2,10,-17,0,3,0
7158676359,3,3,-8,26,9,-11,10,-1
7158691352,-8,-6,-7,-16,-5,-6,0,-3
7158691352,-7,-1,6,-4,-13,2,14,-10
7158698778,-11,-5,8,-3,-2,0,-13,1
7158698778,3,-10,-18,-16,-7,-15,-14,-7
7158707770,5,0,3,6,10,20,17,8
7158707770,-17,-16,2,-27,-8,-6,-32,-13
7158721997,-2,-2,-14,-11,-3,-5,8,0
7158721997,-7,-2,1,-1,-10,7,5,-3
7158728881,0,12,-3,-7,-1,-14,1,-4
7158728881,7,12,2,6,1,-12,-19,6
7158736264,-3,3,-4,0,-13,6,8,-7
7158736264,18,35,4,14,2,-1,2,7
7158751413,-8,-5,-2,-5,7,1,6,-6
7158751413,8,5,0,3,-3,-2,-11,3
7158758788,-4,11,-2,6,-1,-3,-28,2
7158758788,-10,-4,-4,-5,-7,-18,-15,-5
7158767719,-1,-8,-6,-11,1,17,8,-2
7158767719,9,6,-1,0,-14,-11,29,0
7158781983,2,-9,-2,3,5,8,3,6
7158781983,8,-1,7,-6,-1,-1,7,2
7158788843,4,2,-5,-7,-5,-6,1,-4
7158788843,-17,-11,0,2,-1,-12,-13,-5
7158796353,-14,-1,2,5,1,0,37,0
7158796353,-7,-5,0,-7,-12,-11,-6,-5
7158811383,-6,-6,-3,-4,2,-9,-4,-3
7158811383,17,4,-4,0,2,13,24,4
7158818884,10,0,-1,-2,0,-6,-8,2
7158818884,-5,3,3,-4,-7,-1,-8,-2
7158827689,-10,-3,-8,-1,6,2,-2,-5
7158827689,-3,2,5,3,2,-1,-12,-2
7158842079,7,-5,-1,-1,-6,0,0,-3
7158842079,9,6,-1,-4,-5,11,-10,4
7158848816,-2,-19,-1,-4,1,-6,-6,2
7158848816,-13,-31,-14,-14,-14,-1,-11,-9
7158864565,-12,61,-3,3,1,-10,-10,-8
7158864565,1,-66,-2,7,3,12,12,5
7158871365,2,42,-1,1,5,-1,-7,2
7158871365,7,-58,3,9,-7,5,0,9
7158878855,0,72,22,-13,-13,-10,-4,-7
7158878855,-31,-50,-70,-27,3,-6,-6,-14
7158887714,18,30,20,23,4,11,0,5
7158887714,3,-44,-26,-23,1,2,1,1
7158902002,-6,-6,15,30,0,-5,-9,-4
7158902002,14,22,7,-28,-9,-4,39,13
7158908840,-28,-40,-10,26,0,-1,-42,-14
7158908840,28,96,8,-5,9,1,5,3
7158916357,-13,-89,-14,-1,-5,-5,-3,-5
7158916357,1,13,11,-3,-6,1,-5,3
7158931413,14,-3,-30,-28,-3,6,25,10
7158931413,-24,75,35,5,0,1,2,1
7158938819,23,-19,-8,7,-6,-6,-9,-3
7158938819,-11,27,-10,18,14,5,-11,2
7158947720,1,-72,-6,-11,-7,-6,-9,-3
7158947720,-23,-22,-11,-10,-3,0,-10,-3
7158962063,9,15,14,28,8,12,12,8
7158962063,4,25,10,-17,-7,-9,-2,-6
7158968844,7,21,4,-31,-4,-1,1,0
7158968844,3,-12,-1,29,17,-3,0,-1
7158976384,-2,-3,-3,-2,5,16,9,8
7158976384,18,22,8,-12,0,-6,-4,-4
7158991325,-8,2,10,34,7,-10,-25,6
7158991325,3,-1,-4,-31,8,16,0,-2
7158998851,0,5,0,-3,-9,-21,-7,-6
7158998851,-4,-21,5,18,-14,1,-18,-2
7159007724,-7,-7,-18,-51,-7,-7,2,-11
7159007724,2,-16,4,24,-26,-10,5,5
7159022058,7,-20,1,-26,-6,1,-5,6
7159022058,-14,-10,18,28,61,6,10,-6
7159028859,-6,-11,-5,1,-21,24,4,-2
7159028859,18,27,14,14,-2,1,3,4
7159036324,4,-6,-3,-12,-16,-13,0,-3
7159036324,10,17,-5,-2,7,-16,1,-4
7159051329,-12,1,17,17,11,3,7,1
7159051329,-12,-14,-3,4,-5,-11,-11,-8
7159058830,-8,-11,-32,-27,-10,-2,-5,-2
7159058830,-9,1,3,14,-14,-6,-4,-10
7159067730,5,10,-21,-12,-2,-7,5,2
7159067730,2,5,-12,-18,-26,-20,-46,1
7159081998,-15,4,13,1,27,17,-13,-8
7159081998,6,6,5,13,-4,2,1,2
7159088764,-1,8,9,-22,-4,6,24,2
7159088764,-3,1,-15,-6,5,-1,-8,-3
7159096235,18,19,1,3,0,-18,-12,2
7159096235,-18,-1,-3,-13,-14,14,13,-2
7159111361,-2,10,6,8,-3,3,-3,-4
7159111361,-8,-15,-7,-6,3,-7,4,-5
7159118850,9,13,4,9,13,4,22,8
7159118850,1,2,2,-6,-10,-8,6,4
7159127760,1,9,4,1,-9,-38,10,-3
7159127760,2,3,3,3,12,33,7,4
7159141943,4,-13,-4,0,-2,8,4,-1
7159141943,14,-7,-6,-8,-9,-5,-18,-2
7159148878,6,-2,1,2,5,10,16,7
7159148878,-25,-14,3,0,3,-16,-3,-6
7159164440,-13,-14,-6,-4,-2,-3,-17,-10
7159164440,11,4,4,-1,-2,15,15,7
7159171359,7,1,-3,4,4,-4,-20,-2
7159171359,1,-2,2,5,2,11,-3,-2
7159178840,1,-3,0,-3,-8,-9,7,-1
7159178840,-6,-16,-4,-6,-2,2,5,-1
7159187765,5,1,1,5,1,8,-6,0
7159187765,3,-3,3,4,0,0,5,-2
7159202005,-13,-16,-9,-18,-4,-15,-10,-4
7159202005,0,8,15,19,-2,1,1,2
7159208817,-4,4,-24,-13,4,0,-7,-5
7159208817,4,-8,-1,-4,-4,-9,10,6
7159224544,17,26,-1,5,0,9,4,2
7159224544,-9,-2,15,5,-4,-9,-7,0
7159231334,24,28,12,8,4,2,3,11
7159231334,-6,7,-4,6,-1,-6,-3,-5
7159238813,-26,-1,-26,-9,6,5,-3,-10
7159238813,-13,37,19,12,-11,-1,0,1
7159247713,-9,-41,25,27,-4,-12,-9,-9
7159247713,12,47,-55,-42,5,8,-1,7
7159262083,9,-80,22,10,7,3,-7,-4
7159262083,-42,-78,-56,-21,-9,-9,-9,-7
7159268836,18,66,24,25,2,8,5,6
7159268836,2,7,5,11,2,-14,-2,-7
7159284524,-22,-78,-16,-16,-10,-2,8,-1
7159284524,32,9,12,3,10,6,10,9
7159291256,15,32,7,15,-24,-14,-21,-4
7159291256,-54,27,-12,-11,-3,-3,4,-15
7159298807,17,3,15,18,23,13,5,15
7159298807,8,13,19,-12,-3,-2,-7,2
7159307729,-4,-74,-4,21,-5,2,-22,-11
7159307729,-23,-44,-49,-43,3,4,10,1
7159322125,-5,-59,-3,11,-14,-7,2,-2
7159322125,1,36,-3,-12,-3,-3,-6,4
7159328862,10,0,-2,-17,1,-1,6,2
7159328862,12,-18,17,1,5,-2,3,1
7159344528,-8,68,3,34,34,-8,-3,-4
7159344528,10,25,-3,-28,-39,-6,-7,-5
7159351231,-45,1,-10,6,22,23,13,-8
7159351231,16,11,34,38,-3,10,15,8
7159358726,1,41,-11,-26,-20,-2,0,1
7159358726,16,-12,-20,17,43,-18,-11,-6
7159367700,-8,-12,-3,1,-31,5,3,-6
7159367700,-3,-17,6,-23,18,0,-10,-2
7159382014,14,21,16,41,10,1,14,8
7159382014,-1,-30,7,25,-6,-11,-6,-12
7159388816,-12,-36,-47,-88,-15,0,-5,2
7159388816,16,-4,13,18,-16,-7,-1,-3
7159404507,-7,-5,2,-6,13,-3,7,-1
7159404507,3,2,-3,9,0,20,-5,2
7159419497,-7,14,-2,15,9,-24,-7,-4
7159419497,-12,-21,3,-14,-18,4,-9,-9
7159420195,14,29,-1,-6,-19,-9,-13,2
7159420195,-3,-1,-7,1,1,9,14,2
7159427676,-3,1,8,-16,19,3,-10,-2
7159427676,13,-2,-7,-14,-20,-7,0,4
7159442067,-9,11,13,11,6,3,-12,-9
7159442067,0,19,3,-28,-7,3,3,2
7159448821,7,6,-1,14,9,1,9,7
7159448821,-13,-16,5,5,5,-4,-7,-7
7159464432,-3,11,-12,-16,-3,4,1,-1
7159464432,-2,5,12,-3,-22,-7,1,-2
7159471280,8,7,-3,15,11,-6,5,3
7159471280,14,19,12,24,16,-3,1,6
7159478849,-8,-6,-1,-20,-5,13,7,-4
7159478849,0,1,-1,-13,-1,-6,-12,-4
7159487708,-11,-2,1,-5,-6,-7,15,-7
7159487708,7,9,-2,20,15,-5,-9,12
7159501971,13,1,-8,-15,-13,16,-17,-2
7159501971,-14,6,3,6,1,-7,-3,0
7159508763,-4,-2,-1,-4,7,3,13,1
7159508763,12,-11,0,1,-10,1,-2,2
7159524470,-6,-11,-14,-15,-11,-20,-24,-6
7159524470,-9,-13,-6,2,10,2,52,-6
7159531323,-2,12,11,15,8,13,-72,10
7159531323,10,-1,8,-6,-12,5,20,-6
7159538705,-22,0,4,1,0,-9,3,11
7159538705,13,-5,-15,-2,2,-13,-9,-5
7159553835,-7,-4,0,-8,-6,2,4,-4
7159553835,-3,2,5,6,2,-4,8,-3
7159561896,7,11,8,0,4,20,9,1
7159561896,6,-11,-2,-2,-6,-3,-1,6
7159568797,-7,0,-7,-6,-4,-6,14,-4
7159568797,-3,-5,5,7,5,-1,-27,-1
7159583743,-7,-18,-8,2,-3,-7,8,-2
7159583743,-10,-8,-1,-1,0,8,2,-1
7159592725,5,3,-11,-23,-10,-4,1,-6
7159592725,-1,0,-8,6,9,7,10,-4
7159607040,-3,1,0,3,-1,-9,1,0
7159607040,5,5,1,-3,0,7,-19,2
7159613791,10,-4,20,10,-4,-2,4,-1
7159613791,-11,19,-19,-11,3,-5,-13,0
7159630185,9,-28,-8,0,-3,4,2,3
7159630185,-3,17,-3,1,-2,-4,-13,-1
7159631656,1,7,-1,-3,1,-2,9,2
7159631656,2,18,4,-6,-12,-1,5,-1
7159643889,9,28,12,4,6,0,-8,-5
7159643889,-22,-19,-12,11,-3,-1,-7,-7
7159652670,-5,33,2,-10,-1,-1,7,2
7159652670,1,-69,-7,19,-1,-2,0,-6
7159666869,2,20,-17,-14,-10,-3,0,-2
7159666869,2,16,-10,-21,-1,-4,4,-2
7159673860,-15,-31,10,12,-4,-2,-9,-4
7159673860,16,30,-10,-18,7,5,2,1
7159690122,-2,33,7,-2,-10,-4,5,-1
7159690122,-14,-12,-7,4,10,7,6,-4
7159691644,33,-14,6,0,-17,-5,1,7
7159691644,-14,36,8,18,8,-4,-5,-6
7159704548,-18,-52,-14,-7,-5,-3,5,-5
7159704548,5,14,15,-7,-18,-13,-12,10
7159711242,11,11,-11,8,32,23,27,1
7159711242,-11,-12,11,2,-6,0,9,1
7159727054,9,37,12,3,8,1,-13,-5
7159727054,-9,-35,-19,1,-1,-4,13,-1
7159733821,-5,-8,-4,-12,-17,-3,-26,2
7159733821,-3,-12,-4,-7,-5,4,4,-2
7159750205,-3,0,10,-12,25,-9,4,2
7159750205,15,7,9,0,-38,6,3,5
7159751670,-1,-1,-2,4,18,-4,2,-10
7159751670,2,2,1,-11,-36,2,34,5
7159764404,2,0,2,3,8,-5,-8,3
7159764404,0,-3,3,32,29,16,-3,-8
7159771303,-4,7,-7,-23,33,-5,11,3
7159771303,-9,-16,9,7,-4,1,-20,-1
7159787010,-4,-19,-2,14,-44,5,5,-3
7159787010,3,1,-5,-5,30,0,1,2
7159793776,-3,-4,-4,-3,-25,-4,3,-1
7159793776,15,12,2,0,13,-5,-9,2
7159810152,-6,-3,-9,8,-1,-7,-9,-1
7159810152,-4,-1,-2,-36,-21,1,-6,-7
7159811672,-4,-3,-1,-4,-8,-1,-2,-1
7159811672,6,1,-1,8,26,-4,-6,5
7159825170,-9,-8,-11,-4,-12,-10,-5,-5
7159825170,1,16,16,-11,2,19,-3,-2
7159831367,-5,-13,-8,3,-8,-12,4,-2
7159831367,-18,-7,10,6,-1,10,-4,-10
7159847688,15,12,1,1,6,1,4,5
7159847688,-7,-8,4,2,16,-5,-6,-8
7159853835,-11,-5,0,-10,-24,-1,-4,-4
7159853835,2,7,-8,11,12,-8,-2,-1
7159869460,0,7,13,-11,-2,7,6,1
7159869460,-10,1,-10,-5,-5,1,0,0
7159870270,-2,7,3,2,-6,-7,-5,-7
7159870270,0,-13,0,-9,-5,-10,-7,0
7159891981,-11,-14,21,13,11,11,0,-1
7159891981,2,-13,-1,6,-3,-4,-3,7
7159892673,-9,-17,-12,-2,6,-5,3,-3
7159892673,-5,-2,3,-5,-7,11,6,-7
7159907689,-1,-10,-15,-11,-9,-9,-24,1
7159907689,6,4,-1,8,6,-1,-10,2
7159913707,3,-4,2,6,3,1,-9,1
7159913707,13,5,-3,-10,-12,-9,-16,4
7159929483,-20,9,-5,3,5,1,18,-5
7159929483,-2,-10,-2,1,-2,-11,10,0
7159930162,1,-26,-4,3,-3,12,-6,1
7159930162,-16,-17,-4,-6,-2,-21,4,-12
7159951970,15,-19,-4,-5,0,4,36,8
7159951970,-6,-20,-1,3,-1,11,-3,-2
7159952682,-4,8,7,4,0,-6,10,1
7159952682,20,8,3,0,-4,11,3,2
7159967672,3,-5,-26,-22,-4,-14,-9,-5
7159967672,-20,14,7,14,7,-9,20,-2
7159973806,10,18,1,2,-5,-9,-2,4
7159973806,-6,11,0,-16,-1,30,4,3
7159989463,24,26,19,33,0,-8,-19,0
7159989463,-11,-23,-10,4,7,3,7,4
7159990169,4,76,-10,-7,-6,-4,-9,-4
7159990169,29,82,-3,5,-6,-20,-2,4
7160005185,-12,-47,6,15,3,9,7,-6
7160005185,-9,33,37,35,-9,-6,-2,-2
7160011184,-13,-17,-12,-1,16,11,2,8
7160011184,13,58,-4,-68,-29,-12,-11,3
7160027637,3,-82,-60,17,12,6,-6,-4
7160027637,22,30,57,-1,14,15,5,7
7160033622,-24,-27,-58,6,-16,-4,4,-5
7160033622,6,-47,-14,18,38,13,4,7
7160049290,6,83,31,-49,-14,-4,-5,2
7160049290,-2,11,-11,5,2,-5,-1,-5
7160050108,3,18,82,0,-3,-4,-4,11
7160050108,-36,-68,-65,-4,-11,-8,7,-7
7160071806,12,59,-7,-13,-14,-3,-18,-4
7160071806,-6,-3,-37,-2,11,9,-1,-1
7160072610,-5,33,32,-17,-22,-9,-6,-10
7160072610,6,-44,61,89,27,10,7,5
7160087679,3,5,-28,-45,11,2,22,11
7160087679,27,7,-15,-26,-21,-15,-19,2
7160093620,-20,-44,-1,23,9,2,-14,-18
7160093620,14,34,13,-14,6,-9,-16,-10
7160109280,-29,-8,2,27,-16,10,-7,-17
7160109280,20,16,-6,-5,0,-30,7,6
7160110113,-10,39,11,27,14,28,38,6
7160110113,-16,-10,-21,-18,-4,-19,-16,-7
7160131776,-14,5,11,8,-28,18,-10,-4
7160131776,-2,-14,-9,-13,8,-4,12,-3
7160132601,19,-30,-25,-4,21,-23,-49,-2
7160132601,-12,-20,13,-3,-44,25,23,-3
7160146150,-2,-52,-6,34,17,-16,-2,-5
7160146150,1,-22,-5,-35,-9,21,36,4
7160153622,3,-33,-5,-3,-21,-3,-2,-3
7160153622,-9,-26,-18,-8,39,-7,-9,-1
7160169304,-1,11,20,-2,-29,-1,-2,2
7160169304,-4,-5,-2,3,6,-9,-23,-12
7160170125,-3,-8,4,-8,-4,-2,9,1
7160170125,-6,14,6,2,-21,-8,5,2
7160191822,7,3,-16,-8,20,-7,6,6
7160191822,-10,-14,-4,0,3,12,-13,-7
7160192591,8,-12,-10,-38,-16,1,2,2
7160192591,5,20,-1,51,13,0,3,4
7160206146,-11,-2,6,-28,1,-5,-3,-4
7160206146,5,14,-21,29,7,-5,-12,0
7160213644,3,17,-6,-17,-8,5,7,-2
7160213644,-3,11,-3,-10,-16,-10,-8,-2
7160229338,-6,-8,9,21,5,0,0,-3
7160229338,-5,-8,-10,-5,-16,-5,-7,0
7160230105,4,-14,-10,4,27,7,7,2
7160230105,-1,-7,3,-13,6,0,-1,-1
7160251799,-3,-1,4,16,-3,-7,-6,0
7160251799,-3,-10,18,-2,-14,-7,-8,-4
7160252631,9,-10,0,10,4,6,6,3
7160252631,-3,-3,0,-13,-3,-5,3,-1
7160266142,8,2,0,-2,4,29,-3,3
7160266142,-8,6,0,-4,-8,-18,-18,-4
7160273644,-13,-14,-10,-2,-5,-11,5,-4
7160273644,-5,-13,-8,-6,-2,4,-13,0
7160289392,-4,11,5,-4,-5,-12,4,-4
7160289392,5,-14,-8,-1,0,-13,15,2
7160290207,2,-5,-1,2,1,9,9,-5
7160290207,21,1,1,-10,-10,12,6,4
7160311950,-37,-5,0,-5,3,-10,2,-6
7160311950,8,0,7,3,6,10,-9,1
7160312669,-3,1,-5,4,-1,-4,20,0
7160312669,-5,-13,-4,-6,-3,1,-2,-2
7160326243,28,22,4,-2,4,-6,0,8
7160326243,-10,3,-1,-4,-6,5,11,0
7160333789,-6,2,-1,0,-4,-4,-20,-1
7160333789,6,12,11,0,2,-2,-8,-6
7160349407,-10,2,-2,-3,2,-1,3,1
7160349407,-13,-7,4,-1,-2,7,-4,-6
7160350116,13,4,-14,0,-1,-5,-5,2
7160350116,-11,-3,6,-2,-3,-9,0,-4
7160371930,-2,-15,-1,-5,1,9,4,-1
7160371930,4,-16,-9,-3,-3,-2,-2,-3
7160372603,-7,13,-1,3,0,-3,-30,-1
7160372603,11,0,-2,-21,-9,1,15,-3
7160386299,7,-10,2,39,21,-3,-1,5
7160386299,-7,19,-6,-17,-5,3,-5,1
7160393795,6,15,0,20,5,-2,-9,-6
7160393795,-38,-31,-8,-10,-5,-5,-6,-3
7160409357,-1,-13,5,-23,-8,-7,-9,-2
7160409357,8,37,2,2,-1,2,1,1
7160410254,8,46,23,39,8,2,8,1
7160410254,-2,-12,-5,-17,9,3,-1,-7
7160431931,-8,53,-20,-27,-9,-6,-1,1
7160431931,-12,-49,3,21,10,4,-3,-1
7160432644,17,61,15,-15,-8,-1,7,2
7160432644,6,-49,-6,12,9,5,-2,9
7160446295,2,6,-2,1,-2,2,10,-6
7160446295,1,35,-2,-14,-11,-9,-24,-4
7160453786,-32,-85,0,7,-12,-12,-6,-10
7160453786,6,25,-1,-9,4,5,4,2
7160470139,29,11,10,1,4,1,10,8
7160470139,-5,-4,-7,6,10,9,6,1
7160477056,-26,-20,-3,-6,-4,-13,8,-8
7160477056,19,33,-7,-13,-26,-18,-23,-3
7160492587,-4,2,-10,-15,2,18,28,-2
7160492587,-6,25,11,22,0,-4,-24,2
7160494098,4,-11,-6,-14,21,23,3,7
7160494098,-11,6,-1,-4,4,-13,-3,-11
7160506299,4,-10,-3,7,-19,-6,-5,-5
7160506299,9,-14,-9,-38,-50,-24,1,-1
7160513706,-2,-29,-14,10,17,-2,-4,-1
7160513706,-11,-3,11,26,-6,-10,1,1
7160528791,-4,-44,20,-12,17,18,-21,0
7160528791,-17,-24,5,28,4,-3,14,-5
7160536310,6,-6,-21,-40,-12,15,-4,0
7160536310,7,1,-4,17,20,-16,6,-1
7160545203,-9,0,-1,6,-9,-14,-12,-8
7160545203,10,-1,13,11,-13,-7,-6,-3
7160559303,3,11,-9,-50,-2,-16,0,-5
7160559303,-21,-8,-18,43,10,33,4,1
7160566125,-9,-6,-14,-32,-6,-35,-2,-4
7160566125,5,-1,-3,0,7,20,3,0
7160573788,11,7,16,16,-9,-14,-12,-3
7160573788,13,28,2,-16,7,19,22,10
7160588722,10,12,-12,3,-13,2,-13,2
7160588722,6,11,-3,-5,14,-4,0,1
7160596231,4,15,-9,4,-1,-2,3,-3
7160596231,1,15,12,0,-13,5,-20,2
7160605296,3,7,14,39,27,-10,9,4
7160605296,-7,-15,-5,-15,-1,21,-19,-9
7160611135,17,5,-6,0,-7,2,-1,11
7160611135,5,-1,5,-9,-12,0,7,-7
7160626292,-20,-1,-5,-10,-13,-10,-2,-3
7160626292,-5,-8,-11,-15,1,-1,11,-7
7160633772,-6,-11,5,24,12,-4,-16,-5
7160633772,4,15,-9,-24,-9,7,12,0
7160648714,-14,-2,5,3,-1,1,-25,-10
7160648714,7,12,-5,-14,-9,-17,4,2
7160656263,-12,0,2,5,-8,9,0,-4
7160656263,11,8,-1,4,7,-38,-33,5
7160671915,-4,-15,-4,-5,-3,38,13,-3
7160671915,4,-11,-2,5,5,-4,1,-3
7160672718,8,-10,-1,-1,-6,-17,10,3
7160672718,-27,-37,0,-2,-6,9,-52,-11
7160686100,2,-23,-7,-2,-4,-8,13,0
7160686100,7,-1,0,1,2,-5,3,2
7160693824,6,1,1,-2,3,1,2,1
7160693824,-15,2,-2,-6,-7,-20,-2,-9
7160708759,-13,-10,4,3,-4,-4,29,-4
7160708759,21,-22,-2,0,6,9,-9,3
7160716241,-28,-22,-2,-3,-3,5,13,-2
7160716241,5,-18,-5,-1,-1,-8,14,0
7160731914,21,-4,0,0,2,-1,-14,4
7160731914,-18,-10,-1,4,8,-9,10,-2
7160732592,26,29,3,3,-6,-3,-8,6
7160732592,8,18,-3,-17,-9,19,15,-4
7160746136,-27,-2,-8,5,8,0,-7,-5
7160746136,16,13,9,13,2,-9,-5,1
7160753745,-1,-16,-7,2,2,19,7,2
7160753745,6,12,18,22,-3,0,13,-1
7160768759,7,0,-26,-31,6,-11,8,5
7160768759,-5,-8,-10,-12,-9,9,-16,-4
7160776266,7,17,4,8,-1,3,7,11
7160776266,-29,52,4,-14,-5,-12,-6,-12
7160791932,0,-49,-15,1,-9,-8,-6,-1
7160791932,-21,-30,5,10,5,0,3,-3
7160792615,2,-14,-14,-4,-5,-6,-9,-1
7160792615,21,44,12,8,11,3,28,6
7160806192,-5,69,17,15,1,8,-45,-10
7160806192,10,-9,16,-7,-5,3,16,3
7160813682,-46,-107,-8,-8,-5,-12,-21,-14
7160813682,27,9,-6,-14,7,-8,12,6
7160828723,-36,-3,-40,-14,-10,-8,5,0
7160828723,-12,6,6,15,10,-2,-6,-5
7160836130,-15,-1,-38,-34,-13,-5,19,-10
7160836130,1,19,29,9,5,4,-31,-4
7160851851,41,-52,60,26,-5,-3,0,10
7160851851,8,38,9,25,-6,-2,3,9
7160852669,-27,-23,-45,-35,5,6,4,-3
7160852669,-6,-37,-54,-23,4,4,1,-12
7160867551,13,21,32,3,-30,-11,-4,1
7160867551,9,24,-5,-10,11,6,23,6
7160873780,16,42,30,28,29,3,-16,-4
7160873780,4,1,-11,9,-4,-1,9,8
7160888747,-1,33,8,23,12,4,-5,1
7160888747,-20,10,-14,-35,-29,-14,-10,-7
7160896203,9,28,7,-2,-7,0,10,5
7160896203,-4,-32,6,3,-1,3,12,-1
7160911949,1,-23,-1,10,4,4,-55,-2
7160911949,-16,-42,3,-14,-9,3,2,-3
7160912579,12,7,10,-6,3,-10,14,-1
7160912579,-10,-28,-10,25,21,7,12,7
7160926217,4,-10,-15,-8,23,13,3,-8
7160926217,7,-12,-9,-4,-9,2,2,4
7160933744,-2,8,13,6,-26,-15,13,-1
7160933744,-10,-43,-8,-26,-28,-24,-20,-10
7160948655,-9,6,-1,18,13,16,15,-2
7160948655,10,4,-9,-12,11,-1,-2,2
7160956217,16,10,17,-1,-4,1,-3,-1
7160956217,-10,-16,-8,19,-5,-1,-2,3
7160971924,-10,12,-2,-19,-9,-15,7,-1
7160971924,-14,-5,10,15,2,5,-2,-5
7160972603,1,6,-11,4,6,1,-15,-2
7160972603,3,18,7,-35,-10,1,-3,1
7160986235,5,17,-3,47,-6,3,11,0
7160986235,-2,9,0,-23,25,-3,-5,-3
7160993783,-8,4,-11,-35,-17,-6,-11,-6
7160993783,-3,3,10,9,-4,4,-1,0
7161008660,6,-4,-17,-28,-12,-10,11,1
7161008660,-8,-11,7,30,2,0,-6,-8
7161016259,-8,-4,0,20,-1,3,-12,-4
7161016259,-16,-15,-10,-18,3,-7,0,-3
7161031839,8,0,-2,-12,-3,14,4,-1
7161031839,15,8,-4,3,4,-6,-1,3
7161032672,-5,9,18,-2,-10,11,-1,-1
7161032672,-2,-11,3,25,9,7,-3,0
7161046134,-1,9,1,-9,5,-9,0,2
7161046134,-3,0,-13,-14,-8,-6,-1,-3
7161053723,0,1,6,9,3,9,4,-1
7161053723,6,-5,7,2,-3,-3,-9,-2
7161068744,-2,0,-6,-15,-3,-7,7,-2
7161068744,-5,2,-2,-4,-7,-21,-5,-3
7161076175,12,-6,-8,8,3,-3,-1,2
7161076175,-17,-18,-3,2,2,13,1,-2
7161091927,7,-9,-8,-14,-2,0,5,-2
7161091927,-30,-18,-2,7,-5,-8,-16,-4
7161092614,10,9,0,3,0,-5,2,1
7161092614,-21,4,3,1,1,-5,6,-6
7161106311,10,-13,-1,4,2,-8,-3,-3
7161106311,6,27,3,0,2,15,9,9
7161113776,0,11,4,1,1,2,-4,7
7161113776,-1,3,-2,2,2,-3,-4,-1
7161128735,-5,-3,0,-5,-3,-3,-2,0
7161128735,9,14,-1,0,0,4,9,-1
7161136277,12,-1,-10,-5,-5,-2,-13,-1
7161136277,-3,-4,18,7,-2,-5,-6,-1
7161151880,-17,-5,-14,-18,-1,1,3,-1
7161151880,17,-11,-8,-1,9,11,0,2
7161152605,-11,4,4,8,7,-1,3,-1
7161152605,5,6,8,5,-3,3,0,-2
7161166253,9,10,3,-11,-7,-5,-5,2
7161166253,6,1,-9,12,-7,-7,-3,-2
7161173652,6,8,5,-19,-6,-5,-2,1
7161173652,-11,-11,20,31,-4,-4,-3,-5
7161188768,-5,-2,-31,-41,7,7,4,5
7161188768,-10,0,-5,-5,0,2,1,-3
7161196266,1,-4,2,5,8,2,1,-6
7161196266,-1,13,-4,-2,-12,-7,-9,-1
7161211924,8,7,15,20,-5,-4,-2,1
7161211924,-19,-26,-7,-6,-4,0,-2,-7
7161212593,-5,2,-9,-6,1,-3,-2,-2
7161212593,14,14,-4,3,6,3,9,7
7161226281,0,-25,5,8,3,2,-5,-3
7161226281,-6,45,-1,1,-7,-2,-4,-6
7161233787,-32,-91,-10,3,-6,-3,14,-3
7161233787,23,4,-6,-24,-18,-4,-24,-2
7161248622,-11,54,-11,7,26,2,4,-3
7161248622,16,0,5,5,0,4,-2,5
7161256221,-3,0,4,10,-2,-10,-5,-5
7161256221,0,-22,-10,-7,4,8,26,8
7161271858,-11,-18,3,1,-13,-15,-11,-9
7161271858,15,1,14,5,-11,23,1,3
7161272606,-1,32,-10,-13,10,-1,-1,4
7161272606,-12,-8,-16,3,1,-15,-19,-5
7161286167,0,5,12,6,-4,7,-1,-1
7161286167,11,-4,1,-3,-2,0,9,4
7161293730,7,15,5,9,14,13,19,7
7161293730,10,7,-4,-4,-14,-4,-17,-3
7161308761,-6,-18,-5,-9,-6,-15,-37,-3
7161308761,-12,-6,-1,-22,0,-26,7,-3
7161316206,-13,-11,-1,20,-17,17,6,-6
7161316206,-1,-9,5,-23,7,3,13,9
7161331853,14,-5,2,38,43,3,-4,-8
7161331853,7,-4,13,17,-11,3,1,3
7161332746,-7,-7,-18,-20,18,-16,-14,-7
7161332746,-13,-11,-7,4,-17,0,4,-3
7161346206,3,-5,1,-27,-43,-12,6,2
7161346206,-3,-9,-12,25,46,0,-10,-4
7161353767,-1,3,4,1,-41,-12,4,-3
7161353767,5,15,4,-4,5,16,-2,-1
7161368695,2,6,15,24,9,0,16,3
7161368695,-8,-12,-1,-9,-1,-1,-1,-2
7161376239,11,-1,-7,-1,-13,-16,-31,-3
7161376239,3,11,18,-6,-2,-11,-1,-3
7161392591,-7,11,-1,0,-6,1,-2,-3
7161392591,-5,-10,10,36,27,25,8,2
7161399436,13,10,-36,-46,8,1,-1,2
7161399436,-2,-1,-7,9,-10,-13,0,-5
7161406169,5,-2,-6,-5,0,2,10,9
7161406169,-11,-3,4,3,-11,-6,-18,-2
7161413717,1,6,11,10,1,-4,0,-4
7161413717,-2,-3,-22,-28,-1,-2,-1,-5
7161428725,-5,-3,-9,-10,-12,2,8,-3
7161428725,8,10,-9,-17,-7,-17,3,1
7161436168,-8,1,20,4,-3,10,-13,-7
7161436168,7,7,-1,-5,-1,3,-3,-2
7161451122,-13,-9,3,0,-6,3,4,-5
7161451122,3,-6,6,-9,-7,17,12,1
7161459462,-4,-6,-9,8,10,-4,-10,-3
7161459462,-1,-19,-8,7,9,6,21,4
7161466262,-2,-11,0,-2,5,36,0,-2
7161466262,-11,-9,-7,-23,-24,-20,-16,-11
7161473760,3,6,13,12,8,-3,5,0
7161473760,-4,-6,-5,1,6,-2,-2,1
7161488645,8,7,-4,-5,-3,-7,0,5
7161488645,-2,17,-6,-11,-9,-3,6,-2
7161496280,-7,-16,7,3,-1,4,2,-3
7161496280,5,5,-6,-1,2,-1,-11,4
7161511182,-35,-9,0,-3,-3,-11,-2,-9
7161511182,16,-10,-11,-6,-2,1,13,5
7161519373,15,-6,10,5,1,-5,6,5
7161519373,-7,-18,5,1,2,6,-5,-2
7161526102,17,9,5,2,1,-4,-2,2
7161526102,0,-12,-9,-14,3,5,-1,3
7161533669,-18,-4,-3,11,0,2,-1,-5
7161533669,-4,6,7,-6,-9,1,2,-4
7161548729,27,-11,-3,10,7,23,2,2
7161548729,-25,38,8,4,0,-2,-11,-6
7161556230,-6,-31,3,11,3,-4,-1,4
7161556230,6,41,-25,-9,2,-4,-3,-5
7161571269,-21,-71,17,1,-18,-8,-2,-6
7161571269,10,21,-1,20,14,-6,-5,0
7161579315,25,86,-10,-20,-7,2,-1,7
7161579315,-23,38,4,-2,-1,-7,1,-5
7161594400,3,-66,-11,0,-1,-7,-4,0
7161594400,-21,21,26,15,2,14,2,0
7161595092,-20,-81,-15,-16,-14,-12,-14,-17
7161595092,20,93,12,8,13,17,5,8
7161608740,33,10,16,20,1,7,30,19
7161608740,-52,-17,-58,-53,-2,-14,-18,-22
7161616247,-3,55,-16,-11,-16,-5,-13,-12
7161616247,-14,-40,-24,-43,4,-4,16,-2
7161631258,12,9,39,28,-12,-14,-28,0
7161631258,12,-40,-8,-7,-16,-8,-8,1
7161639408,-22,22,-32,-24,2,3,6,1
7161639408,-31,-23,-18,12,-5,-9,-3,-12
7161654392,4,60,-7,-20,10,3,6,4
7161654392,25,-22,12,19,-13,-6,1,5
7161655109,25,56,67,71,-6,-7,-5,5
7161655109,5,-23,-25,-64,9,10,-3,3
7161668761,-29,-20,-21,-13,6,-4,-2,-9
7161668761,32,21,8,6,-9,-6,-5,4
7161676258,-1,2,9,37,5,0,20,5
7161676258,2,-7,12,22,7,5,-18,-1
7161691250,2,52,2,9,10,2,-13,-5
7161691250,-16,7,-15,-30,-8,20,3,-2
7161699408,3,3,3,-30,-15,1,-5,-5
7161699408,6,-14,10,22,8,-8,3,8
7161714406,-3,-3,-15,-28,-3,-39,19,-5
7161714406,5,-10,6,19,-9,10,-28,-1
7161715144,-12,-53,3,10,21,23,26,2
7161715144,9,-52,8,21,34,8,-8,-2
7161728710,3,-10,-12,-21,-34,7,10,0
7161728710,-1,-15,0,10,7,-19,-7,5
7161736243,3,-18,-6,-29,10,-2,1,0
7161736243,10,-14,3,23,-21,-4,-7,-3
7161751132,-21,13,-12,-14,12,-5,-10,-6
7161751132,-6,-13,10,-9,2,7,20,-2
7161759469,13,-11,1,-10,5,-5,-11,1
7161759469,6,5,-3,-26,-26,-6,0,-1
7161774356,-13,5,-3,30,9,-1,-12,-1
7161774356,-6,-4,4,-15,-8,-6,7,-3
7161775063,-3,12,-15,-19,8,4,6,1
7161775063,16,33,21,14,-16,-8,-5,1
7161788707,-6,18,-4,1,10,12,4,1
7161788707,8,7,-11,-1,0,-5,6,3
7161796234,-1,0,8,1,3,4,-5,0
7161796234,1,0,1,9,-5,-6,2,-1
7161811152,1,-13,-1,-2,-6,-2,-7,-3
7161811152,-4,2,11,7,0,-6,1,-5
7161819462,3,-14,-16,11,4,0,-4,1
7161819462,-8,-17,-11,-23,-11,-6,-3,-2
7161834286,2,-7,3,-4,-4,0,1,-1
7161834286,2,-1,6,20,10,-1,0,0
7161835114,-6,-6,-3,-6,2,1,-1,0
7161835114,-3,-11,-2,1,-3,-4,0,-1
7161848717,-8,-5,-6,-15,-13,-5,-8,-4
7161848717,-1,-5,-13,-5,9,3,3,-3
7161856222,1,9,7,6,-12,-12,-3,0
7161856222,-5,-5,4,15,14,18,9,2
7161871232,-2,2,-2,-11,-4,2,-4,-4
7161871232,4,4,-5,-4,-2,-5,-9,0
7161879300,1,0,6,2,-7,-8,-2,-1
7161879300,-4,-5,1,-1,-1,-11,-2,-4
7161894379,9,10,4,3,-1,-2,1,2
7161894379,-3,10,2,-1,-2,3,17,3
7161895096,-15,-15,-8,-6,-1,-4,-15,-3
7161895096,-4,-9,2,2,-6,4,1,-5
7161908679,-8,-17,3,3,-1,-23,-15,0
7161908679,11,6,1,-2,2,18,6,-2
7161916237,1,1,-1,-6,-4,-1,-4,-5
7161916237,8,8,2,6,2,-5,-14,1
7161931224,-7,0,-6,-3,-2,2,-7,-1
7161931224,-11,-9,-3,-5,-2,-4,-3,-5
7161939183,4,1,0,-2,-5,-2,0,1
7161939183,-5,-3,3,5,2,1,5,3
7161954360,12,6,-1,-2,3,0,8,0
7161954360,1,-2,0,-1,4,7,4,3
7161955050,-13,-4,-2,-1,-3,1,-6,-1
7161955050,3,-4,-1,-1,-8,-16,2,-4
7161976937,8,5,1,-4,-1,6,2,4
7161976937,0,4,0,-2,5,-7,5,-1
7161977589,-11,-16,3,11,2,9,12,-2
7161977589,-3,-3,-2,0,3,-9,-9,0
7161991188,-29,1,5,-9,-8,20,5,-5
7161991188,19,15,0,11,-1,-11,-6,5
7161999408,21,-5,-11,-28,-10,-3,-3,0
7161999408,-22,0,3,18,2,-3,0,-4
7162014351,19,-7,-5,2,4,1,0,2
7162014351,11,41,2,-6,3,-2,2,2
7162015038,-21,-39,-8,-4,-4,-1,0,-4
7162015038,6,1,0,-27,-6,6,-1,-3
7162036832,2,-47,-8,19,3,-4,2,3
7162036832,-15,-17,7,13,1,-3,-6,-8
7162037594,6,48,11,30,5,-2,-3,4
7162037594,-13,-14,-15,-31,-4,4,22,-2
7162051229,-10,-9,10,8,3,3,-17,-3
7162051229,6,-17,-1,-5,-8,-3,-4,0
7162059414,13,36,1,-9,-10,-5,-1,-3
7162059414,-5,-9,-16,-3,3,4,1,0
7162074314,4,38,8,-7,0,-1,6,4
7162074314,4,15,7,12,-3,-2,-7,-8
7162075092,-8,-27,8,28,2,0,-1,-2
7162075092,10,36,-16,-27,-3,-2,-5,0
7162088801,0,7,-14,-7,-7,-5,7,4
7162088801,-13,-9,-12,-20,-11,-5,-2,-5
7162096197,11,-1,4,1,13,4,-5,8
7162096197,5,-9,14,19,2,-3,-4,6
7162111095,-12,23,3,-2,1,6,5,-7
7162111095,-2,7,-3,-4,-6,-18,-3,0
7162119445,16,14,0,3,9,9,7,-2
7162119445,-9,-26,0,-3,-3,21,1,-4
7162134340,11,-10,-10,-3,-14,-19,-4,0
7162134340,-3,-18,4,-20,5,2,-1,1
7162135037,-7,-11,-13,-4,0,3,4,1
7162135037,9,10,22,62,21,12,-6,6
7162148675,-6,-6,-12,-50,-17,-11,-2,-4
7162148675,10,10,2,36,12,0,-1,1
7162156187,-16,-23,-2,-20,-4,14,-9,-8
7162156187,-4,-15,-18,-10,15,-17,-5,-1
7162171097,3,6,6,3,-12,7,1,1
7162171097,18,13,-5,20,10,-6,-1,5
7162179440,2,18,24,3,-11,-4,7,5
7162179440,-3,5,1,19,-7,-16,-1,-4
7162194289,9,7,-4,-11,21,13,7,3
7162194289,-11,-16,7,-8,-13,1,-4,-6
7162195088,2,8,-22,33,-4,-20,-6,-5
7162195088,-10,-22,-7,-41,-7,5,-2,-5
7162217285,-4,-10,-8,-18,3,-11,-2,-5
7162217285,-9,-11,1,-4,-8,6,-2,0
7162217989,-3,4,2,-25,-11,10,6,0
7162217989,0,2,24,43,13,-2,1,-2
7162231245,-3,-14,11,-1,-4,0,1,-2
7162231245,-6,-11,-17,-18,4,-2,0,-3
7162239353,-1,-3,3,-15,-6,-9,0,-3
7162239353,-2,12,-5,-8,-15,-14,-11,-2
7162254303,0,0,7,24,13,13,4,-1
7162254303,-5,5,3,1,-9,-13,-7,-2
7162255104,1,-8,-2,-7,2,-1,-2,2
7162255104,-2,1,-2,-7,-7,6,6,0
7162277557,1,23,10,15,1,-3,-4,-3
7162277557,2,-14,-12,-13,-5,4,0,3
7162278247,-2,-6,-3,-3,10,-2,-1,1
7162278247,6,-3,8,5,0,-6,8,-4
7162291272,3,-2,-4,8,-1,20,3,-3
7162291272,-22,-23,-3,-6,4,-3,-3,-3
7162299397,1,-10,-4,-6,-6,-11,-3,-6
7162299397,13,14,5,1,-5,9,11,3
7162314325,-9,-9,-7,5,1,-27,-17,-1
7162314325,-12,-2,2,-3,0,20,-2,-3
7162315081,-1,5,-7,-4,-2,-9,-11,-2
7162315081,14,0,-3,-7,-6,5,19,5
7162337595,-4,-1,-5,-1,-4,-8,7,-1
7162337595,-4,-15,0,1,4,1,-7,1
7162338291,4,-10,-2,0,2,-4,4,-5
7162338291,-23,-19,-6,-4,-4,-3,-11,-3
7162351215,7,-8,2,5,0,-2,4,-1
7162351215,-5,-5,2,-3,-4,0,4,-2
7162359408,14,4,-2,-2,0,7,19,2
7162359408,-21,3,3,-1,-2,-15,-22,-2
7162373599,3,5,7,9,0,7,17,6
7162373599,-7,3,-8,-8,-3,-13,-1,-5
7162381898,1,29,3,-5,4,10,-3,6
7162381898,-8,-41,-6,11,2,-5,-6,-8
7162397513,22,88,-9,-4,3,-3,-2,6
7162397513,10,10,15,22,-9,9,2,1
7162398252,-4,-45,-30,-29,4,-4,-4,-3
7162398252,-35,51,-10,7,1,-5,-5,-15
7162411268,0,-31,2,-19,-9,0,-6,2
7162411268,25,-15,20,-9,-7,-3,1,-2
7162419389,-74,-17,-22,23,11,-1,-6,-12
7162419389,58,17,39,30,-8,12,-1,17
7162433702,-51,-9,-41,-13,3,-7,-13,-17
7162433702,35,12,-9,-21,11,-2,3,2
7162442538,-3,-20,-36,-32,-7,-6,-12,-3
7162442538,3,-23,-45,-23,-17,-12,0,-2
7162448588,8,-41,51,35,0,0,2,7
7162448588,-17,-11,-18,-2,-7,1,2,-2
7162465078,8,45,49,4,10,5,6,9
7162465078,8,-28,-1,-8,13,15,19,-1
7162471182,3,38,25,10,0,4,-30,-2
7162471182,-15,-19,-38,-50,-12,-13,-7,-4
7162480100,21,13,17,42,-12,-11,-4,-1
7162480100,7,32,-1,-1,-1,-4,-1,7
7162493694,3,-26,4,1,5,4,1,-5
7162493694,4,35,10,12,16,4,20,13
7162502615,3,38,-8,-10,-14,-3,-8,-9
7162502615,-4,17,11,-8,6,6,17,-1
7162516113,2,43,-9,17,16,17,15,0
7162516113,-11,22,-11,-11,-9,-11,-1,-10
7162525143,20,-21,16,25,-18,12,-13,12
7162525143,-11,-28,-17,-12,36,-7,-4,-6
7162532666,-3,-40,-3,8,-11,-10,-10,1
7162532666,3,-17,8,18,21,10,26,1
7162540164,3,-38,8,-13,-18,-9,-15,-2
7162540164,-4,-13,-8,-37,-33,-12,-1,-6
7162553699,-12,-28,-20,-21,-5,3,5,-6
7162553699,2,-21,6,-1,0,8,-14,2
7162562569,7,10,4,26,28,-12,4,0
7162562569,-2,16,10,12,-16,7,-10,-3
7162576173,8,-8,-13,6,-10,-14,0,-2
7162576173,-9,-2,-1,4,7,2,-9,-5
7162585114,-11,-13,-14,-18,6,11,8,-4
7162585114,5,18,0,20,9,-3,1,5
7162591201,-9,-6,0,-58,-23,-5,-4,-5
7162591201,-1,15,0,-25,7,-10,-6,0
7162600115,-1,30,6,34,-2,9,5,0
7162600115,-2,-18,6,10,14,8,-4,-1
7162613510,-2,0,-15,-13,3,0,-5,-2
7162613510,-5,1,4,30,-15,-8,-10,-4
7162622706,-1,-5,3,-33,-4,-8,7,3
7162622706,1,-2,7,20,-2,5,-2,-4
7162636200,4,-5,0,-10,-12,-5,-11,-1
7162636200,-2,-15,-10,-7,16,6,5,2
7162645119,-3,-9,-3,0,-4,-4,-5,-1
7162645119,-1,-3,-6,-12,-13,-8,-12,-4
7162651178,-7,-2,3,15,19,3,14,4
7162651178,-4,4,9,7,-14,-2,-13,-5
7162660114,-1,-8,-6,-5,3,-6,-4,0
7162660114,-9,-4,-12,-18,-10,15,7,-2
7162673664,4,13,1,11,5,-1,7,0
7162673664,2,2,-4,3,-6,2,2,1
7162682605,-8,-6,-2,-7,-6,-6,-9,-4
7162682605,7,1,-4,-5,-5,-19,3,-3
7162696182,1,-4,-7,1,0,0,0,-1
7162696182,-12,-1,5,10,-1,9,-21,-2
7162705063,-2,-6,5,-5,2,-3,5,2
7162705063,5,-4,-8,-8,-4,-6,-1,2
7162711171,3,9,5,8,4,5,11,4
7162711171,6,-4,0,0,-4,-8,7,4
7162720057,4,-3,-3,-5,1,19,-2,-2
7162720057,-11,7,8,-1,-1,-13,-3,-2
7162733588,-9,-13,-5,1,0,-1,-6,-6
7162733588,-5,1,-3,-1,-1,2,12,3
7162742550,19,8,0,-3,1,-1,7,-1
7162742550,-3,-9,1,1,3,-4,-7,3
7162756889,-4,-9,0,0,-2,0,1,1
7162756889,-1,16,5,-1,-4,1,-5,-4
7162763681,3,-11,-3,1,1,0,-3,-7
7162763681,5,2,1,-4,-1,-4,-5,4
7162770991,-2,0,0,-1,-5,-11,-7,0
7162770991,5,9,-5,-1,-3,8,-1,0
7162780171,-5,11,2,-12,-6,-3,4,0
7162780171,13,12,5,15,-1,5,-5,-4
7162793647,-9,-17,10,19,4,-4,0,-1
7162793647,-18,8,-14,-4,-3,-10,-2,2
7162802650,-25,-8,-13,9,8,0,1,-6
7162802650,-1,2,-3,-20,3,5,7,1
7162816814,27,31,12,15,1,5,-3,1
7162816814,2,19,0,2,6,-1,-1,1
7162823560,5,-32,6,26,-10,-9,-1,7
7162823560,-14,-45,-31,-25,0,-3,-12,-7
7162831116,0,21,-10,-18,-7,2,10,3
7162831116,39,75,29,10,-1,-1,-15,-1
7162840209,-24,-2,-6,-18,-3,-4,1,-6
7162840209,-1,-35,-9,12,1,1,-4,0
7162853543,-9,-38,4,-2,0,2,-4,-4
7162853543,8,-6,-4,-35,-17,-6,9,3
7162862656,-7,-5,6,34,14,5,6,0
7162862656,1,10,12,-7,2,4,-6,-4
7162877397,-10,7,5,0,-12,-2,-3,-2
7162877397,10,-15,-17,-11,-2,-5,-2,4
7162879114,16,23,-2,-3,1,-5,-2,1
7162879114,-4,38,4,4,2,7,8,1
7162891164,5,23,7,15,4,3,8,-1
7162891164,-26,-25,-3,-7,-6,-3,-16,1
7162900112,4,-8,-21,-44,-8,-10,-8,-7
7162900112,7,6,-6,8,-13,-9,-8,-1
7162913611,-8,-5,0,11,14,-1,3,1
7162913611,15,-29,10,-1,-3,4,10,-1
7162922596,-18,-4,9,25,33,16,2,4
7162922596,-13,-22,1,-24,-16,5,1,-10
7162937527,6,-14,-8,-6,-3,-9,-2,8
7162937527,-11,-23,4,0,2,-2,7,-7
7162939053,-6,-5,2,12,25,-5,-6,-4
7162939053,15,19,5,21,-32,-8,-7,0
7162951125,-16,-17,12,-42,12,-19,7,-10
7162951125,-6,-4,-29,-5,-3,24,1,-2
7162960080,10,4,-1,-19,-15,-19,-12,-2
7162960080,0,0,1,13,7,20,12,2
7162973616,3,-9,8,24,16,0,-1,-1
7162973616,-3,-7,3,25,15,-8,2,1
7162982592,-2,-4,6,-22,-27,6,12,-1
7162982592,-14,-15,-3,-30,-1,-10,-4,-5
7162997509,-6,3,-14,-17,-24,-5,-10,-5
7162997509,-6,-14,8,6,1,5,6,-3
7162999185,8,-2,-5,-7,1,2,-2,2
7162999185,-2,13,-4,-1,5,-10,-1,1
7163020055,7,10,0,-1,-15,4,-10,-2
7163020055,-45,-37,-15,-14,1,-18,-6,-15
7163021593,11,27,2,7,-7,8,6,5
7163021593,2,4,-2,7,10,-6,-4,3
7163033581,10,4,-13,-14,-10,-2,-7,-3
7163033581,13,10,1,20,-9,-6,1,1
7163042592,-2,13,-2,-6,-5,-2,-8,-2
7163042592,1,-6,3,-7,3,5,12,2
7163057974,0,6,-9,8,-1,-7,-10,-1
7163057974,-4,16,4,-1,1,5,13,2
7163059520,-2,6,-1,-6,-8,-3,5,-5
7163059520,2,-2,1,14,12,13,-4,4
7163080093,-2,6,5,8,-1,-16,0,-4
7163080093,7,-9,0,-2,6,12,-32,0
7163081544,-5,-24,-3,-6,-12,11,24,-1
7163081544,6,-5,0,5,3,-2,14,4
7163093654,2,-2,-5,-4,0,3,-2,4
7163093654,-10,-10,-1,-5,-1,-13,9,-3
7163102584,0,-6,1,6,1,-3,-23,-4
7163102584,-10,0,1,-1,-4,-15,-11,-2
7163117495,4,-7,-6,-6,-3,18,9,-2
7163117495,-4,-9,0,6,2,1,1,-5
7163119043,7,10,4,5,-1,1,-3,4
7163119043,23,8,0,0,-3,-7,-2,-3
7163140052,-19,-21,-6,-11,-3,-4,-7,0
7163140052,11,-6,1,13,-2,-1,-2,0
7163141532,-13,-8,1,2,-3,-4,-2,-4
7163141532,4,-6,-8,-10,2,4,-5,1
7163153669,-4,-1,5,-6,2,1,0,-2
7163153669,-6,2,6,23,2,-11,-6,2
7163162512,7,-11,-22,-19,-5,12,1,-5
7163162512,-2,-4,-1,-2,-3,-3,-4,-4
7163177482,12,8,8,1,-2,12,2,0
7163177482,-18,15,13,-10,-5,-7,5,1
7163178996,-6,-4,-20,1,4,-11,-5,6
7163178996,12,30,16,12,-3,0,0,-5
7163200049,-28,-38,-12,0,1,7,3,-2
7163200049,22,13,-16,-23,-1,-5,-3,-2
7163201535,9,97,2,-16,-8,-6,1,2
7163201535,-7,-104,-13,-2,-1,-2,-2,-1
7163213715,-2,95,5,1,-1,-2,-6,-4
7163213715,-15,-45,19,14,-8,-5,-1,-7
7163222548,-2,-20,3,9,19,10,2,-1
7163222548,3,-61,-11,-17,-2,2,5,3
7163237456,19,50,-19,42,23,7,2,-2
7163237456,-3,-55,11,16,-20,-4,4,6
7163238992,0,-18,-22,-27,2,-7,-14,-5
7163238992,-3,6,3,7,-4,-5,-1,1
7163251182,13,11,11,-20,-4,-4,1,5
7163251182,31,54,1,-6,2,12,10,5
7163260063,-16,-22,15,25,-5,-9,-5,-8
7163260063,1,-6,3,-2,0,2,0,5
7163273671,1,-15,-17,-1,0,0,-1,4
7163273671,-13,32,-18,-18,-1,5,9,2
7163282572,-4,-2,13,7,-6,-3,-10,-3
7163282572,2,67,1,-27,-4,-9,-13,-11
7163296852,-19,-36,10,24,-22,-9,-3,-5
7163296852,13,8,-2,-8,7,1,2,5
7163303556,-5,16,5,12,25,11,7,4
7163303556,-14,-6,-8,13,-1,6,5,2
7163311170,7,-2,2,-13,-5,-5,-3,1
7163311170,2,5,-9,-10,15,-1,-7,-4
7163320045,-1,-27,0,10,-11,-14,4,-1
7163320045,2,30,10,15,-23,3,-5,-6
7163333671,-9,-32,-30,-44,9,0,6,3
7163333671,2,-11,1,40,15,12,-3,-2
7163342548,-1,-18,17,0,10,16,18,3
7163342548,-7,-4,-4,19,31,-4,0,-1
7163356846,-2,-29,-10,-3,-25,-4,-7,-8
7163356846,0,-10,7,4,-7,-4,3,-6
7163363618,13,10,-6,-33,-25,-20,-11,-1
7163363618,-23,8,12,34,3,0,2,-4
7163371187,-2,-23,-10,-32,8,3,-11,-3
7163371187,25,31,-16,1,-11,-20,-1,5
7163380067,-15,-14,5,1,-4,5,4,-2
7163380067,-15,-3,-3,-21,-14,-9,-5,-5
7163393689,6,5,10,22,10,1,0,1
7163393689,-10,-5,-2,-20,-1,-9,-13,-5
7163402568,11,8,-13,-15,-4,9,4,0
7163402568,3,13,1,14,9,-1,2,1
7163416901,-12,4,4,1,-1,3,2,-5
7163416901,-2,-5,-1,-7,-8,3,-19,-5
7163423543,11,3,10,8,-3,-11,1,7
7163423543,-8,-10,-8,-24,-6,-5,1,-2
7163431130,6,3,10,28,18,-1,6,4
7163431130,-19,-18,-6,-11,-7,10,9,-3
7163440020,4,-6,5,2,-3,0,-4,-1
7163440020,-11,-5,-7,-11,-4,1,-2,-4
7163453603,12,-2,-6,-10,-6,-15,-10,2
7163453603,-5,-9,-7,-5,-3,0,-3,-4
7163462523,-2,1,-2,6,-2,3,4,1
7163462523,9,13,2,-1,4,3,-6,3
7163476837,-7,-1,6,5,5,3,5,-2
7163476837,-12,-7,-3,-3,-7,-3,-8,-5
7163483601,13,8,-6,-12,-3,0,-1,-5
7163483601,-2,16,7,21,1,-3,3,6
7163499887,-9,-8,0,-5,-2,0,-4,-4
7163499887,2,2,-2,-8,0,-2,10,0
7163501505,10,-8,-2,1,-3,-3,-23,3
7163501505,-1,0,-13,-13,2,1,1,-4
7163513654,1,-7,4,4,-6,-3,1,2
7163513654,-5,-2,1,0,2,-4,-3,-2
7163522506,-4,-8,-8,2,-1,2,-3,-4
7163522506,3,-1,-1,-11,-6,-1,2,0
7163536904,-10,-15,-2,1,-3,3,-4,-1
7163536904,6,-2,2,-2,3,-4,-4,0
7163543672,-12,-1,5,26,11,1,1,-2
7163543672,8,-1,-2,-10,-2,0,-1,2
7163560028,1,5,-2,-3,-2,-3,1,-1
7163560028,2,8,1,0,-3,1,-1,0
7163561502,-9,2,1,-9,-3,-3,2,-4
7163561502,1,9,5,16,-2,-7,-3,-3
7163573605,0,-8,-4,-4,-3,2,1,-1
7163573605,2,-3,0,-1,1,6,4,4
7163582525,-4,4,5,16,4,0,3,-1
7163582525,1,5,-1,-14,1,-1,-4,-2
7163596831,-6,4,-3,-6,-10,-8,-8,-5
7163596831,-3,-3,-3,1,1,0,1,-1
7163603502,6,-1,0,-10,-3,-6,2,2
7163603502,1,1,-7,-5,6,5,-2,2
7163619963,-11,0,-1,-11,-3,-1,-1,-8
7163619963,-14,-4,5,31,2,-4,-1,-1
7163621491,-7,1,9,-7,-11,-10,-6,-7
7163621491,-4,-9,-12,-10,1,1,3,1
7163633574,10,8,-1,3,5,2,0,3
7163633574,1,6,1,-5,4,3,0,1
7163642475,-2,-11,-8,-1,-1,-2,0,1
7163642475,-1,2,9,13,-2,3,-1,1
7163656879,2,2,-12,-24,2,0,0,-1
7163656879,10,4,4,3,-1,-6,-2,-5
7163663563,-4,-2,-4,1,-7,-1,-1,3
7163663563,-2,-3,-4,-7,-3,-5,-6,-2
7163680056,5,5,4,9,-2,-6,10,3
7163680056,-3,5,2,2,11,16,-7,-3
7163681523,-6,-1,-9,-13,-4,-11,-7,-5
7163681523,-2,4,-7,-8,-14,-1,0,-3
7163693622,3,2,1,8,-1,5,-3,-6
7163693622,7,9,3,2,6,-2,2,4
7163702549,-9,-2,1,15,16,2,13,1
7163702549,0,-6,3,-11,-4,5,-12,0
7163716755,2,5,1,10,3,-2,2,1
7163716755,-18,-11,-1,-12,-16,2,-7,-4
7163723515,11,-5,-5,-11,-4,-11,-5,0
7163723515,-10,2,0,-10,-4,-7,-5,-1
7163739984,3,1,-1,5,5,-1,-9,-9
7163739984,-4,-14,-12,-13,0,4,4,0
7163741513,4,-20,0,-1,7,4,1,-2
7163741513,-10,-5,4,4,-11,-5,4,2
7163753697,-3,-9,2,8,1,-1,-2,2
7163753697,4,4,6,-9,-13,-15,-4,-2
7163762544,-1,-9,-17,4,4,13,9,-1
7163762544,7,1,4,18,16,2,2,-1
7163776718,-2,-1,1,-16,-1,3,0,2
7163776718,-9,-19,-15,-5,-1,-4,4,-4
7163783687,1,9,-2,-17,-1,0,-6,-2
7163783687,-4,-6,-5,-4,-2,-3,-2,-3
7163800056,-4,-13,-1,-13,-15,4,-3,-2
7163800056,4,5,2,0,-1,-11,-2,-1
7163801567,-6,6,-2,14,-11,3,-2,0
7163801567,7,-4,-8,-5,3,-5,9,0
7163813612,3,-2,9,5,1,8,-6,3
7163813612,-3,5,1,-6,-1,-2,-2,-1
7163822547,-10,1,-3,1,0,-3,0,-2
7163822547,1,-7,-6,-8,-6,-6,-3,-3
7163836861,4,3,2,13,6,-2,3,1
7163836861,7,12,-3,1,-4,-2,-4,1
7163843621,4,-13,0,-13,-6,-2,2,-1
7163843621,-5,7,3,5,6,2,-2,-1
7163860464,-2,6,11,3,-1,-1,1,1
7163860464,2,-4,-3,4,-2,0,-2,0
7163861965,7,16,0,3,-9,-9,0,1
7163861965,-2,-4,-3,-8,1,-5,-9,-5
7163873614,-4,0,-7,0,3,4,7,-1
7163873614,4,-1,-4,2,1,0,6,3
