timestamp,emg1,emg2,emg3,emg4,emg5,emg6,emg7,emg8
12482022928,6,1,2,16,4,-11,-7,6
12482022928,2,3,-1,-2,-6,10,5,-1
12482023710,3,-1,8,-5,-7,-5,-10,-3
12482023710,-4,4,0,-8,-12,-4,2,-5
12482027779,-8,-8,3,-8,3,-2,-2,-4
12482027779,1,-5,-6,2,1,0,2,3
12482031476,-1,0,-6,-4,8,1,0,4
12482031476,7,4,1,-6,-13,-6,-7,0
12482033481,-1,2,-3,-7,6,1,1,-4
12482033481,-4,-8,6,-5,-2,-7,-4,-4
12482045024,1,6,10,49,14,9,8,-1
12482045024,-5,-3,-16,-17,-3,-3,-4,-1
12482057271,-8,2,2,13,-7,0,-2,-7
12482057271,-2,-3,11,13,1,-7,-7,-2
12482065091,5,-5,-16,-31,-6,-1,2,3
12482065091,-4,-8,8,6,6,0,5,0
12482072307,2,-1,-6,-19,-9,-1,-3,-3
12482072307,0,4,-10,-8,-2,-3,-4,-2
12482090171,-6,3,6,2,3,6,2,-4
12482090171,7,-4,-1,13,0,-2,-2,-1
12482093655,-6,2,-1,-4,3,2,1,-1
12482093655,5,0,7,-7,-6,-2,0,-1
12482141782,0,-5,0,-8,-5,-1,10,2
12482141782,2,-6,-7,-5,5,1,0,-2
12482142753,-7,-7,-6,-15,-20,-9,-7,-6
12482142753,-5,-5,3,6,21,7,-1,-2
12482143432,-2,-2,15,-11,-5,3,2,1
12482143432,-3,-3,-31,15,0,-3,-2,-2
12482146628,6,4,4,0,-8,-6,-5,-2
12482146628,5,-1,-11,-14,-8,-4,-2,-1
12482153319,-5,2,-14,15,7,-3,-3,-3
12482153319,4,-4,13,-16,-5,-2,1,1
12482161593,0,0,0,6,4,1,3,0
12482161593,-5,-2,3,5,-8,-3,-2,1
12482168453,-9,-3,-1,-8,4,-3,-3,1
12482168453,2,8,9,7,-2,6,4,1
12482184050,3,4,-5,4,4,3,-2,-3
12482184050,-3,-8,12,-1,-3,-6,-6,-3
12482190859,-5,-8,-1,-4,0,5,10,0
12482190859,-2,5,4,1,0,-2,-4,-2
12482198375,-3,8,4,-1,3,2,2,2
12482198375,7,0,-12,-6,-1,3,2,-1
12482213381,5,4,-6,2,-3,-5,-9,-3
12482213381,-1,-4,-3,-1,-1,-3,-2,0
12482221533,-6,-5,10,-2,1,1,1,-1
12482221533,-4,5,0,-4,-5,-4,-5,-2
12482228372,11,8,-2,7,0,-1,-2,1
12482228372,6,-3,-15,-11,-10,-2,-3,-1
12482244109,-11,-6,-24,1,5,-3,-1,-4
12482244109,0,-7,4,-20,-10,0,1,-6
12482250924,2,-1,-21,40,17,1,-4,-1
12482250924,-6,-3,12,-4,0,-2,1,5
12482258464,11,1,5,-8,-8,-4,-2,3
12482258464,-12,-3,12,9,-1,-1,-1,-3
12482273381,-1,-8,-17,-9,-3,0,-1,-5
12482273381,-9,15,-13,8,2,1,-3,-7
12482281608,9,17,15,-16,-13,-4,-2,2
12482281608,2,13,15,13,14,4,2,4
12482288312,0,-11,15,0,-6,-3,-3,0
12482288312,-1,16,31,3,2,1,3,3
12482304064,-4,-14,17,2,-4,-2,-1,0
12482304064,-1,-28,-39,-9,-2,-1,1,-4
12482310910,-7,21,-13,-24,-11,-8,-7,-3
12482310910,-4,-43,31,16,9,12,2,-6
12482318339,-3,1,3,6,4,4,4,1
12482318339,-2,4,15,-1,-11,-13,-2,0
12482333289,-4,-14,-34,-8,-3,-10,0,-5
12482333289,6,3,-1,-8,-5,20,-14,10
12482341625,4,10,6,3,16,-14,-7,-5
12482341625,-6,-5,-9,9,10,32,16,5
12482348415,-1,5,10,-5,-3,-3,0,-7
12482348415,-15,-2,-10,-11,-9,-12,-6,-4
12482364047,5,-15,-14,0,-7,-10,-15,1
12482364047,5,5,-1,-14,-29,-19,-7,-3
12482370794,-2,1,15,2,-11,-5,-11,-6
12482370794,-5,-6,-22,-51,14,14,20,1
12482378243,-4,-10,-5,44,47,27,12,6
12482378243,3,1,-12,-6,9,-16,1,0
12482393275,7,7,21,5,-11,9,-3,3
12482393275,-6,-13,2,9,-20,-24,-11,-6
12482401525,-7,6,-9,-27,-17,-8,6,-6
12482401525,8,16,6,-8,-8,-14,-3,3
12482408275,-3,-12,43,23,-13,-1,-4,-1
12482408275,1,12,-20,-8,17,7,-2,-3
12482423965,-2,-3,-5,-17,-31,-8,-4,-3
12482423965,1,-4,7,16,22,6,4,0
12482430785,-10,-2,-9,-7,11,15,9,1
12482430785,5,2,1,13,-1,1,3,0
12482438280,4,4,6,4,-6,-22,-7,1
12482438280,1,9,6,19,-23,12,-4,-1
12482453265,2,0,-9,-26,34,-10,7,1
12482453265,3,-1,0,28,6,12,1,-4
12482461426,-1,2,-9,-24,-23,-12,-3,5
12482461426,-7,-6,-6,17,8,0,-6,-5
12482468293,-5,-2,1,2,-21,-6,-13,-4
12482468293,0,-1,-2,-16,-3,-13,-1,-2
12482484006,2,1,-13,6,20,15,5,-4
12482484006,-3,-1,-3,-10,2,-4,1,1
12482490759,2,-2,1,8,4,8,1,1
12482490759,-4,13,-12,-15,-16,-16,-11,-3
12482506461,-6,-11,12,-2,-11,1,-1,-6
12482506461,-4,-4,-10,-3,6,9,0,2
12482513261,7,3,-9,19,23,-4,-2,2
12482513261,0,0,-4,-9,-21,-12,-2,1
12482521496,-7,-9,3,4,2,9,0,-3
12482521496,-1,-1,6,-18,2,-2,-3,-4
12482528264,3,8,0,-2,0,0,1,1
12482528264,-6,-11,-35,15,-1,-2,-1,-5
12482543967,-2,1,3,7,4,4,0,-1
12482543967,1,-2,-2,-6,-5,-7,-4,-4
12482550752,-4,-2,-1,-10,-7,-13,-5,1
12482550752,4,-6,-1,3,9,27,14,0
12482558360,-4,-13,-18,-4,2,-4,0,0
12482558360,6,2,-7,-13,-12,-5,-6,0
12482573397,-9,1,-2,-6,4,8,3,-4
12482573397,-7,-2,12,5,9,-11,-3,0
12482581537,-7,-15,-14,-12,-13,4,2,3
12482581537,-3,1,13,24,20,3,-1,-1
12482588293,1,0,11,31,-7,-2,-2,2
12482588293,11,5,13,-31,9,-4,-1,0
12482604123,0,1,-31,-16,-2,3,1,-2
12482604123,-1,-4,-13,-12,-5,-3,-2,0
12482610845,-4,-8,-12,-2,-8,-1,-1,-4
12482610845,-3,2,17,9,0,-3,1,1
12482618403,7,0,0,16,8,4,1,4
12482618403,8,4,0,3,-3,0,-1,-2
12482633415,-4,-1,-2,-22,-5,-1,-1,0
12482633415,-5,-4,3,5,-6,-4,-6,-6
12482641640,0,5,7,-4,3,0,7,-2
12482641640,-4,-4,13,10,0,0,-1,-1
12482648353,0,0,-18,-14,-5,0,2,-1
12482648353,-6,-5,1,3,-2,-5,-1,-1
12482664829,14,14,27,10,6,0,-2,-1
12482664829,5,-10,-18,-7,-5,0,-1,4
12482670920,1,1,-14,-27,-12,-1,-2,3
12482670920,10,15,9,21,6,-1,-5,-3
12482687284,-16,6,40,23,8,1,2,1
12482687284,9,-12,-39,4,-6,-1,2,-3
12482693331,-4,-28,-18,-38,1,0,-2,-1
12482693331,-13,21,-23,-18,-6,-7,-4,-5
12482702283,12,20,43,38,-7,-1,-3,4
12482702283,4,15,-41,-17,8,4,-2,1
12482708463,5,-24,3,-3,-6,1,4,1
12482708463,-4,-38,-24,-16,-9,-1,0,-4
12482724783,-7,12,6,8,15,6,-2,-6
12482724783,-16,-35,-14,-10,3,0,1,-1
12482730945,-11,40,37,17,0,-4,-3,-4
12482730945,16,29,53,16,-9,-5,0,6
12482747314,-12,-25,-51,-29,-11,-7,-5,-6
12482747314,7,11,30,4,-14,-5,-1,2
12482753328,-7,-29,-7,0,20,14,7,-3
12482753328,3,66,11,21,15,9,-1,-3
12482762283,13,4,36,-20,-4,-3,1,-5
12482762283,-11,-24,-34,-15,-1,-11,1,-4
12482768304,-2,6,-11,19,-17,-7,1,-1
12482768304,2,-12,0,-1,-9,-2,-22,10
12482784837,-8,-20,-11,3,18,24,-1,-1
12482784837,-2,6,21,-9,-14,-64,-4,-9
12482790859,10,12,20,-3,12,77,-18,12
12482790859,-6,-12,-17,6,-9,-4,1,-1
12482807285,-6,-9,-27,-13,-10,-22,-1,0
12482807285,-4,4,33,25,9,16,21,-1
12482813328,5,8,-17,-36,-9,-23,-15,-7
12482813328,-6,-24,21,55,13,0,-1,-4
12482822262,5,-2,-52,-62,13,5,2,4
12482822262,-5,15,9,0,1,4,-18,-1
12482828417,-6,-14,-7,-8,-3,-15,8,-6
12482828417,0,-17,5,-10,-26,-8,-1,0
12482844812,-2,7,4,19,13,0,-2,-5
12482844812,2,4,-3,6,8,17,-1,-1
12482850917,2,1,2,0,-16,-10,5,2
12482850917,5,-5,-12,-8,16,-27,7,1
12482867304,-7,-10,-3,30,-7,13,-3,-5
12482867304,-10,9,11,-20,-6,15,3,-1
12482873242,6,1,10,28,10,-14,-6,-3
12482873242,9,-2,-13,-19,-12,-1,-7,-1
12482882271,-2,-4,-7,-33,-25,-12,-4,-4
12482882271,-14,-27,-2,15,9,7,-2,0
12482888254,-3,2,-7,17,9,-12,3,-1
12482888254,2,-2,-12,5,20,1,7,-2
12482904775,1,13,0,-13,-13,-3,-9,-2
12482904775,-1,-4,18,-13,-13,9,1,4
12482910757,-3,-15,-17,30,15,4,0,-2
12482910757,-2,-7,-1,-36,-9,0,0,-1
12482927291,2,-1,0,-2,0,0,3,0
12482927291,-11,2,3,51,3,-7,-6,-4
12482933249,4,1,6,-46,0,-6,4,1
12482933249,-1,-4,-15,13,-3,10,2,-2
12482942233,-2,0,1,0,-2,-6,0,1
12482942233,3,3,9,-4,-4,-3,-3,-2
12482948240,-5,-6,-4,-7,-6,-2,-2,-2
12482948240,-1,7,3,-16,-1,8,8,2
12482964768,4,3,-3,6,2,-4,-1,0
12482964768,4,2,0,-3,5,5,3,1
12482970762,4,15,11,10,0,0,4,-1
12482970762,-11,-7,9,-7,-6,-6,-5,-1
12482987283,-4,-15,-11,14,2,3,6,1
12482987283,5,-4,-6,-12,3,3,-3,3
12482993232,2,4,1,-2,-11,-10,-1,-3
12482993232,0,-2,-2,0,0,11,0,-1
12483002262,-2,2,-3,10,10,5,0,-2
12483002262,4,4,-2,-11,-3,1,3,0
12483008241,-6,-2,5,1,-5,-7,-3,2
12483008241,4,-2,-5,-1,-5,-4,-2,-1
12483024743,3,3,6,1,-2,-5,-2,0
12483024743,0,4,-3,-4,0,-3,-3,-5
12483030732,0,-2,-1,4,-3,-3,-4,0
12483030732,-9,-11,-4,-7,2,-1,0,-4
12483047233,-5,-2,5,0,-5,-4,0,-2
12483047233,-1,3,-6,-2,-3,-2,0,-2
12483053218,6,4,2,0,0,4,2,-2
12483053218,0,3,-7,-12,-3,0,-3,-1
12483062267,0,-2,4,12,4,-1,-4,-2
12483062267,0,1,-3,-10,1,-2,-3,4
12483075766,-9,-15,-1,1,-4,0,0,-3
12483075766,-7,-8,-5,0,-4,-3,-1,-5
12483084730,-6,3,-2,-6,-3,-2,-2,-4
12483084730,21,5,6,-1,-2,0,0,2
12483090710,-3,2,-3,9,1,-1,1,3
12483090710,2,3,11,-6,-11,-4,-4,-1
12483107269,-3,3,2,14,-6,-6,-7,-5
12483107269,-3,1,15,-27,-1,-1,-3,-3
12483113270,-2,-14,-41,17,27,5,3,-3
12483113270,-5,5,-5,-10,-4,-2,3,2
12483128246,-2,-32,-13,13,-5,1,-1,0
12483128246,-2,-16,-11,6,0,-1,0,-4
12483135713,-3,15,25,-1,-3,-1,1,1
12483135713,17,14,8,-17,2,3,1,4
12483151406,-5,20,-2,-1,0,-5,-6,-4
12483151406,-3,7,-2,-2,-3,0,-2,0
12483152210,-6,-35,-1,10,-6,-1,-2,-2
12483152210,-6,-1,-3,5,10,2,2,-3
12483167229,4,10,7,-9,-7,-6,0,3
12483167229,4,8,-11,7,-3,1,-3,0
12483173215,-21,15,0,-11,-7,-7,0,-7
12483173215,12,-7,6,2,1,8,2,0
12483188239,16,-1,10,7,8,2,-2,4
12483188239,-10,0,-6,-5,-5,-6,-4,-1
12483195714,-7,-7,-5,-19,-9,-2,-5,-5
12483195714,-7,-15,0,1,1,-7,-3,-3
12483211408,7,9,-3,25,14,9,11,1
12483211408,-12,-8,-9,6,11,1,-9,-7
12483212216,20,8,14,-6,-8,5,-4,4
12483212216,-11,-2,-10,-4,-3,7,0,-4
12483227402,9,9,-2,-17,-12,-14,-8,3
12483227402,-11,0,3,4,-7,-6,10,0
12483233368,-6,-9,1,-4,-7,-4,7,0
12483233368,-6,-11,-4,8,-3,-2,-10,-2
12483248364,-6,-7,-3,-8,24,12,11,-1
12483248364,13,6,6,8,-8,0,-9,2
12483255826,4,14,5,-12,7,2,-7,3
12483255826,0,8,2,18,-10,-14,1,-2
12483271504,-9,-22,-4,-30,-1,-7,2,-2
12483271504,0,-9,-16,7,17,15,0,-3
12483272195,1,3,-4,2,5,3,1,-3
12483272195,1,0,2,10,-22,-11,-4,1
12483287233,-4,-2,-9,2,-1,-6,-7,-1
12483287233,-3,-2,3,0,-26,-13,-5,-6
12483293264,1,-1,2,13,12,-7,-6,-5
12483293264,-7,-8,-8,-18,-1,1,2,-4
12483308402,-2,-4,-14,-11,0,11,1,1
12483308402,7,13,3,2,-7,-4,-6,3
12483315921,-4,-4,-6,26,31,16,12,0
12483315921,3,1,10,-21,1,-1,-4,-1
12483331442,2,5,6,21,-4,-4,2,2
12483331442,-8,-27,-10,-32,-24,-19,-4,-5
12483332348,5,0,4,21,3,17,-2,3
12483332348,-8,-10,-6,-3,19,6,1,0
12483347294,2,-2,1,10,-7,-8,-6,-1
12483347294,-1,-1,-6,-20,5,-1,4,0
12483353466,0,5,11,2,-15,-16,-4,-2
12483353466,-6,-12,-10,-25,-5,-1,4,-2
12483368344,-1,-6,3,15,0,5,1,-1
12483368344,6,7,5,22,21,7,7,4
12483375859,3,2,-3,-27,-8,-4,-3,-1
12483375859,6,5,-5,6,2,-1,-4,0
12483391464,-16,0,2,-13,-14,-7,-4,-6
12483391464,8,2,5,8,5,4,8,-1
12483392357,-5,-2,-4,-18,-10,-12,-5,0
12483392357,-6,-10,4,12,3,8,1,0
12483407217,0,2,-4,0,-4,-2,-3,-2
12483407217,-3,2,2,2,6,5,0,0
12483413378,-1,2,-2,-3,-11,-6,-1,-2
12483413378,1,6,1,6,3,-8,-6,1
12483428375,13,8,4,-12,-1,9,7,3
12483428375,-3,-2,-5,4,4,7,5,0
12483435869,3,-6,2,-2,-5,0,-1,-1
12483435869,-6,1,-2,7,-1,-5,-2,-2
12483451375,-6,-10,-1,-4,2,1,1,1
12483451375,-13,-5,-3,-7,-4,-5,-6,-6
12483452217,1,1,-1,-5,-6,-3,-1,-4
12483452217,14,11,0,4,4,0,0,-3
12483467403,-8,-5,-7,-4,-4,-4,-1,0
12483467403,7,4,12,2,0,-1,-3,3
12483473273,-13,-6,-2,-3,-4,-3,-3,-1
12483473273,6,-5,-12,2,2,1,-4,1
12483488371,-4,2,16,-3,-5,-6,-2,-4
12483488371,6,13,21,-3,-1,-2,-18,1
12483495749,-16,-12,-12,6,1,3,6,-2
12483495749,1,0,-23,-9,-3,0,0,0
12483511497,13,9,6,-8,-3,-2,-8,1
12483511497,-15,-31,3,19,0,-3,3,-3
12483512213,-6,34,-8,-13,6,-5,-7,-12
12483512213,6,32,23,-37,-17,-3,0,11
12483527364,1,-17,-37,19,16,3,-2,-4
12483527364,0,-5,7,-6,-1,3,1,-4
12483533339,12,-4,-18,16,-17,-3,2,6
12483533339,-7,-14,-21,19,19,0,-1,-10
12483548225,-4,-9,-14,-53,-6,-4,-2,1
12483548225,8,16,2,4,-4,0,4,1
12483555838,8,9,-1,-9,-19,-4,-2,1
12483555838,32,68,64,15,-9,-1,2,6
12483572862,-22,11,-10,33,16,6,5,-3
12483572862,22,29,47,-18,2,2,3,9
12483573732,-28,15,-62,10,19,6,-4,-12
12483573732,17,48,47,0,-13,0,0,3
12483589216,-5,-2,-4,-18,-10,-12,-5,0
12483589216,-6,-10,4,12,3,8,1,0
12483591006,0,2,-4,0,-4,-2,-3,-2
12483591006,-3,2,2,2,6,5,0,0
12483595258,-1,2,-2,-3,-11,-6,-1,-2
12483595258,1,6,1,6,3,-8,-6,1
12483597697,36,26,26,-25,-5,-1,4,7
12483597697,-18,-35,5,32,13,10,1,-4
12483608327,-8,-9,-1,-8,-11,-13,-9,-10
12483608327,-4,19,-10,-19,-12,-23,-12,-7
12483615870,12,-23,17,6,-22,-15,-7,9
12483615870,-11,-29,-29,13,49,43,35,6
12483631484,7,2,17,8,-6,29,-35,-2
12483631484,-11,10,-12,-33,-42,-3,13,-5
12483632306,4,-11,23,-10,35,-16,6,2
12483632306,-8,-10,-20,1,-13,-7,-11,1
12483645890,14,14,10,44,12,-13,-5,3
12483645890,-6,-18,-14,3,-6,-29,5,-2
12483653309,-6,-5,-3,-10,-33,22,-13,-3
12483653309,-6,-7,-9,-28,-4,15,0,-5
12483668297,4,-3,14,-17,10,-6,21,7
12483668297,-3,-1,-16,33,17,5,-14,-2
12483675841,-1,-5,0,-12,2,-1,8,-2
12483675841,-13,-7,-8,5,-2,-18,-19,-7
12483691395,5,-6,5,-3,-18,2,1,-2
12483691395,-3,-5,-7,-5,12,-5,1,-1
12483692199,-9,-8,0,-16,-17,-12,-8,-2
12483692199,-4,-15,-4,18,-10,-17,-12,-3
12483705830,8,7,-7,-3,19,28,19,4
12483705830,5,17,1,-15,-4,6,7,1
12483713379,1,-6,2,15,-1,6,6,4
12483713379,-14,-26,-15,-35,-1,-12,-2,-9
12483728201,-3,11,15,37,3,-17,0,1
12483728201,3,5,-16,-2,12,20,-4,3
12483735720,4,5,5,10,18,-1,-2,-1
12483735720,2,1,9,-43,-24,-5,-1,-1
12483751442,-1,-1,9,62,26,12,7,3
12483751442,-3,-11,12,11,-6,-7,-5,-3
12483752334,-5,-8,-43,-46,15,1,-5,-5
12483752334,3,5,-10,-8,-16,-14,-5,-2
12483765781,-6,-9,6,-26,-11,-5,-6,-7
12483765781,-6,-4,-16,10,4,6,1,-1
12483773389,5,3,15,5,-12,-3,3,1
12483773389,-5,-4,1,14,13,4,0,1
12483788234,-4,4,-7,-31,-19,-4,-3,-3
12483788234,-3,1,5,8,1,-3,-4,-4
12483795879,-3,-3,4,-2,0,3,1,1
12483795879,-18,-8,-4,13,4,1,4,-1
12483811545,13,9,8,1,-6,-5,0,-1
12483811545,-2,-5,-10,-16,-2,2,0,0
12483812259,-3,-4,0,12,4,-7,-2,-2
12483812259,9,-4,0,13,1,0,-8,1
12483825842,-4,-3,-3,-18,-9,0,-1,0
12483825842,1,6,-3,-4,7,4,0,0
12483833396,-7,-2,5,12,1,4,-1,-1
12483833396,9,11,-1,7,-5,-13,-5,0
12483848340,-3,-2,-4,-17,-7,-5,1,-2
12483848340,-10,-9,1,4,3,3,-5,-2
12483855790,-8,-11,2,10,1,-3,-3,-5
12483855790,-3,-3,-6,-4,-3,-1,0,-2
12483871484,10,7,0,-6,-5,-3,-4,4
12483871484,8,9,6,3,-1,-2,-1,2
12483872232,-4,-5,-7,-11,-6,-2,1,-2
12483872232,-14,-10,-4,7,6,2,0,-2
12483885818,-5,3,-6,-19,-8,-2,-4,-6
12483885818,-1,-9,4,9,1,0,3,-1
12483893327,13,18,10,13,-2,1,-2,2
12483893327,11,2,1,-10,-13,-6,0,2
12483908373,-8,-1,14,3,13,2,1,2
12483908373,-14,-21,-24,-21,-4,1,-3,-7
12483915750,-6,-3,6,0,-1,1,-2,-2
12483915750,-5,2,6,5,-4,-1,-2,-4
12483931529,-16,-30,-26,-2,-3,-1,2,-1
12483931529,1,5,-6,-6,-5,-3,-4,-6
12483932270,-4,5,1,11,7,3,1,-1
12483932270,1,-12,13,-14,-15,-7,-1,1
12483945737,15,41,13,4,7,0,0,4
12483945737,7,-43,-8,-8,-9,-4,-5,-5
12483953375,-26,-25,-3,3,3,-2,-4,-8
12483953375,6,1,-1,13,3,1,1,0
12483968364,1,-2,-2,-9,-12,-4,-4,2
12483968364,6,6,-1,1,13,8,5,7
12483975849,3,15,13,-10,-13,-5,-3,0
12483975849,10,15,-10,-11,8,7,4,1
12483990889,-2,-17,5,57,6,-1,0,-4
12483990889,-11,8,-3,-18,-6,-11,-6,-3
12483999072,1,-10,0,-15,-2,4,3,1
12483999072,10,19,-3,2,10,0,3,2
12484005841,1,-1,-3,-7,1,2,-8,0
12484005841,-4,10,11,1,-6,0,-1,2
12484013397,-5,2,-3,1,0,-7,-6,-3
12484013397,3,3,-10,0,-7,-4,-6,-4
12484028328,0,-2,-2,-17,-6,-7,0,-1
12484028328,1,1,5,21,4,2,7,0
12484035787,0,-4,-15,-27,7,18,1,1
12484035787,-6,-2,-4,4,-28,-37,-9,-5
12484050715,1,2,1,1,13,13,-16,-3
12484050715,-2,11,2,3,13,18,9,2
12484059029,6,9,11,18,-6,-4,-1,2
12484059029,-3,-15,-11,-10,25,-1,3,-2
12484065796,4,-2,-3,-16,-14,-4,5,-4
12484065796,-12,-3,-3,-3,13,0,-8,-4
12484073337,-4,-15,-2,21,0,17,6,0
12484073337,-7,-15,-13,-17,12,3,3,0
12484088307,0,2,-8,-6,-13,-22,-5,-1
12484088307,7,12,3,16,-8,-23,-6,2
12484095831,-1,-4,-2,1,0,14,6,0
12484095831,-5,0,5,10,12,20,2,-1
12484110821,3,14,-2,-5,-15,-13,2,-2
12484110821,-4,-13,-4,-11,4,-13,-5,-1
12484119098,2,2,2,-1,-3,-3,-5,-2
12484119098,4,12,-5,9,-11,-5,2,3
12484125855,-2,3,-7,-9,13,14,12,1
12484125855,6,20,12,-5,-6,-11,-7,0
12484133376,3,-5,-11,-5,-20,-12,-3,-4
12484133376,0,5,1,-57,-21,12,0,0
12484148377,-9,-10,6,95,52,-7,-1,0
12484148377,-1,6,3,32,-23,4,5,-1
12484155794,-3,-20,-13,-32,6,-8,-7,-3
12484155794,4,2,2,9,-5,-2,-6,-2
12484170833,-9,-14,2,-31,-22,-1,1,-3
12484170833,-5,-13,-7,-17,-7,-4,2,-5
12484179030,4,15,5,14,-1,-6,-6,-1
12484179030,-7,-7,10,7,4,1,5,-2
12484193922,5,0,3,-15,-2,3,-4,0
12484193922,-4,-4,-7,-1,6,6,0,-3
12484194789,1,-1,7,-2,2,-18,-7,2
12484194789,-10,-4,-5,5,-3,20,-4,-5
12484208274,1,4,2,-11,-2,6,3,0
12484208274,4,5,7,-2,-1,5,3,4
12484215828,1,14,3,2,3,-4,1,2
12484215828,6,5,2,10,3,-10,-3,3
12484230788,-5,2,-3,-9,-5,6,-2,-5
12484230788,3,0,-4,-7,-3,4,0,1
12484239016,-12,-19,-8,3,1,-6,3,3
12484239016,-6,-21,-13,3,-1,-7,-14,-27
12484253911,8,1,-1,-15,-11,-5,-4,1
12484253911,8,13,-1,-7,0,-1,-3,-6
12484254737,-1,-7,2,7,5,11,4,10
12484254737,-8,-11,3,4,1,0,11,4
12484268368,-6,-1,1,-13,-7,-2,-1,-6
12484268368,-2,-1,8,6,1,-2,-2,5
12484275829,7,7,-12,4,-2,-8,-9,-7
12484275829,18,6,10,-5,3,-1,0,6
12484290748,-23,-18,-13,-7,-7,-5,-2,-3
12484290748,-8,-19,-40,-16,-4,1,2,1
12484299016,-13,13,4,11,5,1,2,-4
12484299016,10,-16,0,9,2,0,-1,-2
12484314028,17,6,-22,-14,-12,-5,2,8
12484314028,-28,12,15,-14,2,4,-1,-9
12484314776,17,-4,22,-5,11,6,6,0
12484314776,-8,16,-62,-28,-10,-4,-1,6
12484328362,9,-23,-20,51,11,5,3,3
12484328362,-16,1,14,-19,-13,-4,-7,-9
12484335784,8,26,20,37,15,3,3,5
12484335784,-14,34,27,13,-7,-3,1,-4
12484350770,11,-30,-13,-35,1,0,-4,-4
12484350770,-12,-34,-8,30,7,1,0,-3
12484358982,11,30,12,-7,-2,-2,2,0
12484358982,-10,-49,-19,-17,-8,-10,-9,-5
12484373971,-6,12,-11,-8,-7,1,3,-1
12484373971,2,24,-1,4,4,-2,-4,2
12484374807,-6,-13,-26,-25,-12,-3,-3,-4
12484374807,-10,-64,9,5,-2,0,0,0
12484388338,-3,9,24,8,1,-8,-6,-5
12484388338,6,-5,-1,-6,8,9,7,5
12484395840,1,3,-14,-6,2,9,1,-4
12484395840,2,8,3,16,9,-7,-6,4
12484410707,-2,10,11,-1,-8,-10,0,-1
12484410707,5,3,19,7,-6,5,3,2
12484418953,-31,-56,-20,-7,-4,7,-5,-14
12484418953,19,4,11,-3,-6,-8,8,1
12484433931,15,13,11,8,20,1,-8,5
12484433931,5,-15,-12,2,5,-4,-4,4
12484434783,3,9,7,-4,-9,18,21,3
12484434783,-16,12,3,-5,-13,9,9,-6
12484448319,4,11,6,1,25,-14,-12,0
12484448319,8,10,0,-8,-21,-3,6,1
12484455819,-5,-14,-6,4,-9,-8,-19,-3
12484455819,2,10,7,13,-3,7,5,2
12484470806,-7,-9,-8,-20,22,14,11,0
12484470806,6,-5,4,-16,5,-1,-4,-1
12484479039,1,-8,7,59,1,-9,-4,-1
12484479039,-1,6,-17,-40,-31,-29,-12,-2
12484494003,-8,-6,2,1,-16,6,-6,-3
12484494003,3,6,-6,1,28,-2,-7,-1
12484494709,2,-1,7,11,-25,-7,7,2
12484494709,-3,2,-11,-50,3,19,1,0
12484508319,-11,4,16,38,14,3,0,-7
12484508319,5,-8,-15,8,4,1,8,5
12484515808,5,6,-7,-41,-20,-15,-10,-1
12484515808,-8,-3,2,39,26,-1,3,-4
12484530720,0,-2,-8,-62,-55,1,-1,1
12484530720,8,8,3,50,28,0,1,-1
12484539065,-5,2,-2,-9,1,7,3,-3
12484539065,-3,-7,-1,-21,7,-5,-6,0
12484553970,-7,6,-9,4,-18,-8,-1,-1
12484553970,4,3,1,-46,-43,-11,-6,-5
12484554701,3,1,4,31,34,-4,2,2
12484554701,4,14,4,13,1,3,-7,2
12484568402,-2,-1,2,-2,14,6,2,1
12484568402,-2,-3,-1,-8,-33,-17,-11,-4
12484575712,1,2,-4,1,20,4,2,0
12484575712,1,0,3,2,9,13,6,1
12484592184,1,0,2,9,-3,-3,-1,0
12484592184,-2,-4,-1,3,-3,3,1,-1
12484599004,0,-2,-2,-30,-11,-9,-6,-3
12484599004,-5,-1,1,23,6,-7,-11,-4
12484613905,-2,5,5,1,-6,-2,-1,1
12484613905,-4,-4,0,-7,4,9,9,0
12484614732,-6,1,-8,-6,-2,-20,-23,-3
12484614732,9,-6,0,9,3,23,16,4
12484628243,2,-6,-2,3,2,5,2,1
12484628243,-4,-3,-4,-3,2,3,-2,-3
12484635719,-3,0,3,-2,-1,-1,3,2
12484635719,-2,13,5,9,2,-11,-6,0
12484650835,3,-3,-2,-7,-6,2,-1,1
12484650835,-7,-17,-2,8,5,1,4,-3
12484658996,-3,-8,-3,-11,-7,-2,-1,-4
12484658996,3,5,-2,-4,-5,-8,-1,0
12484674017,-1,5,5,-5,-4,-1,1,-2
12484674017,-4,-1,-3,11,10,-4,-7,1
12484674688,8,2,3,2,-3,2,0,-3
12484674688,-2,-1,1,-1,1,2,0,-1
12484688275,-7,-7,1,-11,-6,-8,-4,-4
12484688275,-10,0,2,8,-1,-4,-6,-4
12484695777,0,-6,-7,-5,5,4,2,2
12484695777,18,10,11,6,0,-2,-1,4
12484710715,2,8,2,19,-1,-5,-1,1
12484710715,-15,-15,-7,-31,-8,3,1,-4
12484718928,3,-6,-11,2,0,1,0,-1
12484718928,-8,-5,4,-10,-10,-9,-7,0
12484733965,5,-11,1,-3,-12,-5,-2,-4
12484733965,3,13,-5,-3,6,-1,1,1
12484734669,-10,4,22,-1,-5,1,1,-2
12484734669,22,-3,-47,-12,-2,0,0,2
12484748307,-9,-11,6,-2,3,0,2,2
12484748307,-4,-3,5,9,-8,-4,-7,-2
12484755880,-2,-8,-5,8,4,2,0,-3
12484755880,-14,-10,13,-4,3,1,0,-4
12484770671,6,19,11,-11,-3,-1,-1,2
12484770671,17,34,13,15,-2,-1,1,-1
12484778989,-12,5,-11,-34,-5,-5,-1,-2
12484778989,3,-4,2,11,4,4,2,0
12484793946,3,-13,-12,2,3,-3,2,-2
12484793946,-2,-5,8,-8,-1,-3,-5,1
12484794707,3,-3,9,20,-15,-6,-3,-3
12484794707,-9,-5,-5,1,0,-6,-4,0
12484808263,-3,3,-5,-3,16,20,11,0
12484808263,8,20,5,4,-6,-1,-12,1
12484815758,-5,2,-8,-19,-3,1,7,0
12484815758,-23,-6,8,9,7,2,-3,-7
12484830802,20,0,-8,9,2,-5,-4,5
12484830802,-2,-19,-12,0,6,2,7,0
12484839019,-8,-5,-3,-1,-10,-8,-19,-6
12484839019,2,1,1,-9,3,13,1,-2
12484853968,-12,5,-2,3,-4,-11,-3,-6
12484853968,0,-9,-6,8,-7,-7,4,-2
12484854643,16,8,-4,-3,12,-6,-3,3
12484854643,-4,1,9,-4,-5,5,4,-1
12484868185,-12,-11,-1,23,3,2,-3,-3
12484868185,7,-9,-10,-17,4,15,-1,-2
12484875757,2,-2,-4,-19,-3,-14,3,0
12484875757,1,0,-3,38,21,-11,-7,0
12484890831,0,4,-3,-28,-17,-4,1,-1
12484890831,-7,-4,13,31,-9,-7,-1,1
12484898942,-2,2,-9,-2,-2,15,0,-2
12484898942,-1,2,-4,-27,-6,-4,-1,0
12484913266,-6,-11,2,16,0,0,4,-1
12484913266,1,5,0,-17,13,-1,-12,-4
12484921552,-3,10,20,7,3,10,0,2
12484921552,5,-7,4,-3,-18,-7,0,0
12484928369,-3,6,-12,30,17,4,0,-2
12484928369,1,0,-6,-10,7,11,5,1
12484935823,9,9,3,-41,-13,-9,3,3
12484935823,0,2,-15,34,16,-3,1,0
12484950880,-11,-19,8,-19,-6,-1,-9,-8
12484950880,1,-6,-3,-52,-22,-16,-7,-1
12484958848,2,-12,-11,93,43,11,8,2
12484958848,-4,-1,2,-43,-44,-15,-4,-4
12484973308,0,9,-6,-1,12,-3,-1,-2
12484973308,3,0,-1,14,-1,1,1,0
12484981415,-7,-12,7,-26,-7,-9,-6,-4
12484981415,-3,0,-8,-23,-10,0,2,0
12484988338,-6,-5,-5,1,-1,3,1,-3
12484988338,-1,0,4,-13,-5,5,2,0
12484995666,1,-5,-4,1,-14,-4,-4,-3
12484995666,6,3,3,23,12,1,1,5
12485010751,-6,-11,4,-30,-14,-8,-7,-4
12485010751,-13,6,-1,16,2,-8,-1,-2
12485018959,-4,-3,-11,-6,-2,2,-4,-5
12485018959,5,0,1,5,5,-5,-19,0
12485033335,-2,-6,3,-3,-3,-1,1,-2
12485033335,0,-4,2,3,-3,-6,-7,-1
12485041350,5,8,-4,-1,-2,-3,9,-1
12485041350,-5,3,8,-4,0,5,-7,-2
12485048082,-7,-8,-8,0,-4,0,4,-1
12485048082,3,5,-7,8,3,-5,2,0
12485055743,0,3,0,-7,1,9,-2,3
12485055743,1,2,4,6,2,1,5,-2
12485070638,-1,-4,2,-1,0,-3,-9,1
12485070638,2,-1,-3,0,2,-2,1,0
12485078943,-6,-6,5,-4,-3,0,-1,-2
12485078943,4,-3,2,1,-3,-3,-2,-2
12485093238,2,1,-9,-3,-3,-2,-3,0
12485093238,19,11,1,-3,-2,2,4,5
12485101375,-16,-12,-6,3,-3,0,1,-5
12485101375,-15,-17,-1,2,0,-3,-2,-5
12485116395,19,16,19,-2,1,2,3,5
12485116395,-20,-5,-19,-11,-6,-3,-1,-3
12485117308,-4,7,5,13,0,-4,-1,-4
12485117308,2,-10,-20,-10,7,5,7,1
12485130619,7,-16,8,10,3,-1,2,3
12485130619,4,32,-5,17,-4,-1,0,1
12485139001,12,40,4,-11,-3,-4,0,4
12485139001,-22,19,21,-19,-15,-3,-4,-10
12485153335,1,-15,-39,3,11,6,3,2
12485153335,4,-22,-32,14,14,-1,-2,-4
12485161440,5,35,30,-3,-5,-1,-1,-2
12485161440,2,-16,-34,39,11,2,2,2
12485176483,16,66,55,-64,-30,-9,-2,5
12485176483,-6,-48,-25,14,18,4,-1,-8
12485177172,-6,0,10,31,-18,-12,-6,-3
12485177172,10,12,5,17,33,12,15,7
12485190719,-15,-67,5,34,0,0,-8,-4
12485190719,0,18,9,-20,10,10,3,6
12485198993,-16,-75,-36,-35,-16,-9,0,-11
12485198993,6,-31,4,4,-7,-4,-4,4
12485213373,-11,42,-10,-27,-12,-5,1,-4
12485213373,-3,20,14,13,0,1,8,-1
12485221467,-1,-20,-2,6,9,4,5,2
12485221467,-10,12,2,-10,-14,-7,-13,-3
12485236503,4,-12,-12,0,1,-1,16,-3
12485236503,-3,-22,17,-14,-15,-2,-22,-2
12485237146,1,15,-8,6,15,6,18,-1
12485237146,16,8,3,-1,5,20,58,29
12485250846,-1,8,-9,5,4,10,19,-1
12485250846,-7,0,7,0,-10,-8,-7,-4
12485267300,9,-6,-1,-14,2,-10,9,5
12485267300,-8,1,10,-16,-5,1,-13,-11
12485273191,-16,-23,-14,28,-5,1,-25,-4
12485273191,0,2,-5,1,26,2,21,0
12485282278,-1,4,0,1,2,1,-26,1
12485282278,1,-16,0,-21,-20,-12,-17,-8
12485295811,6,11,-2,5,13,-7,-4,2
12485295811,-14,-4,12,8,-10,7,-10,-9
12485304731,-3,-9,-10,6,17,14,7,0
12485304731,1,8,6,12,-10,-17,-14,-3
12485310728,-4,-2,-5,-48,-19,-13,-3,-4
12485310728,0,-8,0,4,4,7,9,0
12485319685,4,-3,-2,24,1,-3,-7,2
12485319685,-7,7,8,18,-12,-14,-2,-8
12485333305,0,-4,-7,-9,16,7,-8,-2
12485333305,2,2,8,-42,-17,-5,-2,-1
12485342222,-6,-9,-4,-25,-8,5,0,-2
12485342222,-1,-8,-13,38,14,9,-8,-5
12485355705,1,11,-6,3,0,-7,-3,2
12485355705,4,-2,7,7,8,-5,-6,0
12485364681,1,0,7,3,-14,-1,6,-1
12485364681,-1,4,6,5,15,0,1,0
12485370785,5,2,-19,-32,3,5,-1,2
12485370785,3,-8,-8,-6,-10,-2,1,0
12485379707,0,6,7,8,-1,-8,-7,-1
12485379707,5,5,-2,-11,-3,-6,-5,-1
12485393198,-7,2,6,22,1,2,-1,-4
12485393198,-5,-9,4,-3,-6,0,0,-1
12485402234,-2,-1,-3,-7,-4,-10,-9,-2
12485402234,2,1,-3,-15,2,8,-3,-2
12485415678,8,-6,-2,15,3,1,9,5
12485415678,-6,-8,-6,1,-4,-2,-6,-3
12485424710,7,10,2,-4,3,4,-1,1
12485424710,-11,-2,3,-4,-3,-4,1,-2
12485430804,-8,-12,1,5,2,0,-8,-5
12485430804,1,3,0,3,-6,-6,-1,2
12485439693,10,6,-6,-5,2,2,-3,-3
12485439693,-4,4,-1,-10,-2,-6,-1,0
12485453152,-1,-4,6,8,-5,4,7,-1
12485453152,-12,-3,-5,0,-1,-1,-2,-3
12485462268,18,0,-4,-11,-2,0,-1,5
12485462268,1,0,-5,-8,-12,-9,-5,-2
12485475750,-1,-4,-7,-4,3,-3,-6,-5
12485475750,-1,7,4,11,0,0,-1,1
12485484707,-7,0,5,4,2,0,-2,-2
12485484707,-5,-1,-5,-16,-3,1,1,-2
12485490655,-5,-6,9,9,-3,-1,0,0
12485490655,18,10,3,-17,3,0,-1,0
12485499701,-9,-9,-8,30,-1,-3,-1,-2
12485499701,-3,-11,-12,-20,-1,2,0,0
12485513269,-2,8,3,1,-13,-7,-2,-3
12485513269,-3,-8,-11,-2,1,-3,3,2
12485522262,-4,2,15,-21,-6,2,1,-5
12485522262,-5,-1,-7,13,16,3,-2,-4
12485535760,-6,0,-3,3,0,-3,-2,5
12485535760,3,1,4,-5,-19,-6,-3,-3
12485544611,7,5,4,8,11,2,0,3
12485544611,-1,0,3,10,-4,3,2,2
12485550609,8,1,-26,-22,-5,-5,-4,-6
12485550609,-11,3,2,0,1,1,3,2
12485559695,-8,-41,-10,-13,-6,-3,-4,-2
12485559695,2,23,13,4,-5,-2,-2,-3
12485573107,8,3,-3,15,7,3,-1,2
12485573107,13,12,20,7,-10,0,0,1
12485582332,-4,31,5,-14,11,7,1,-2
12485582332,-2,-33,-23,-5,2,2,1,1
12485595729,8,-8,12,5,4,-4,0,3
12485595729,-21,-6,-9,14,3,-3,-3,-5
12485604732,-7,-14,-3,-13,-4,-3,-3,-3
12485604732,-3,-70,-15,1,-9,0,-2,-3
12485610641,6,69,8,0,-2,-2,-3,-2
12485610641,9,4,-5,1,4,3,1,0
12485619620,-1,27,9,0,-10,-7,-6,-1
12485619620,-2,4,2,-4,3,-5,0,-4
12485633264,-1,-12,0,-1,0,3,-2,-1
12485633264,-11,-25,-11,-4,-6,-1,-1,-2
12485642233,-1,-2,-2,14,-1,4,-2,1
12485642233,-1,6,1,-15,-4,-6,-13,-2
12485655802,2,8,5,9,6,2,8,0
12485655802,2,19,1,5,6,-21,-11,1
12485664673,-1,-17,-8,-7,-11,6,5,-3
12485664673,-1,25,2,-18,-8,-10,-1,0
12485670716,-4,-10,-7,-5,9,13,-8,-4
12485670716,6,-11,-1,0,-20,17,13,0
12485679683,-7,-12,-9,-4,19,-17,-3,-3
12485679683,11,12,5,5,-19,-6,-7,4
12485693701,-8,-10,1,9,19,9,10,-1
12485693701,-5,-9,-6,-14,15,-9,-7,-4
12485702212,5,4,1,24,3,12,6,3
12485702212,0,16,14,18,5,2,9,2
12485715712,2,-15,-2,8,-21,-11,-6,3
12485715712,4,6,-4,-20,-4,-1,-1,-2
12485724709,2,5,0,14,-3,-8,-7,1
12485724709,-7,-9,-1,-23,2,5,2,-7
12485730809,-3,-8,11,4,-8,6,3,0
12485730809,1,6,-15,-19,21,2,-5,1
12485739664,-8,-1,-1,-8,-12,1,7,1
12485739664,-8,-8,1,20,-1,-13,-6,-4
12485753271,1,-11,8,-7,-6,11,-4,-1
12485753271,4,7,-6,-13,2,3,3,0
12485762144,-11,-26,-6,9,-9,-10,-1,-3
12485762144,0,7,-15,-36,-52,-10,-7,-2
12485775763,-1,3,8,27,61,5,4,0
12485775763,1,0,-4,-4,2,6,2,1
12485784669,1,4,-5,-39,-10,4,-5,-2
12485784669,-1,-4,11,30,10,7,2,-1
12485790794,-4,-2,1,-7,-30,-23,-4,-3
12485790794,-3,-8,-5,17,10,2,-3,-2
12485799678,-1,-4,-2,-17,1,3,0,-1
12485799678,2,-4,-4,-2,-1,-2,-1,0
12485813296,-7,-13,-5,-19,-16,-8,-7,-4
12485813296,-9,-15,4,8,-2,2,-1,-5
12485822276,3,2,-6,-5,-3,-7,0,1
12485822276,5,10,2,-9,7,-7,-12,0
12485835809,-3,-5,-3,-1,-3,8,5,-1
12485835809,-1,1,1,5,-8,-2,-4,1
12485844743,1,6,1,0,-2,-5,-1,-2
12485844743,0,-2,0,6,13,9,13,0
12485850706,0,5,-3,-4,-3,-4,-13,0
12485850706,0,4,3,3,-9,-9,-2,1
12485859657,-1,-5,-6,0,0,-3,-7,-5
12485859657,0,-1,-3,7,15,14,36,13
12485873760,-3,0,-3,-9,-11,-8,7,-3
12485873760,7,2,5,5,-1,2,-5,-1
12485882368,-8,-3,-2,3,3,-1,5,-3
12485882368,0,-2,-2,-3,3,-1,-16,-4
12485895791,0,0,-6,-2,-6,-3,-2,2
12485895791,1,-3,3,3,-5,1,11,-2
12485904681,5,21,0,0,-1,2,-7,1
12485904681,-6,-1,2,0,3,1,-5,-2
12485910755,-14,-23,-7,-3,-2,0,-2,1
12485910755,2,-1,-1,0,-3,-4,-8,-3
12485919658,1,-1,1,-1,-3,-2,-2,-2
12485919658,3,7,-1,-5,-2,-1,-5,-2
12485933275,1,10,1,10,1,2,3,-5
12485933275,-1,-9,-3,-2,0,-2,3,2
12485942158,-2,-6,-6,-2,5,2,0,2
12485942158,8,8,8,-9,-5,-3,-5,-7
12485956467,-5,1,-7,9,1,-1,-2,1
12485956467,-6,-7,-2,-13,-15,-6,-4,-1
12485963230,-9,0,25,-8,5,3,0,-4
12485963230,7,-11,-56,3,2,1,-3,-1
12485970660,16,26,7,-32,-15,-8,-3,0
12485970660,-19,-30,-1,54,13,3,2,2
12485979690,1,-29,-7,-2,-5,-2,-2,-3
12485979690,-21,-16,-7,-33,-1,-1,0,-1
12485993248,3,-25,9,-6,-13,-5,-3,-1
12485993248,12,56,-7,-16,-7,-5,-3,3
12486002176,-7,37,23,24,-2,-2,-1,-4
12486002176,32,96,38,8,9,8,5,5
12486016504,-10,-69,-39,-14,4,4,3,1
12486016504,-1,28,15,1,-1,-1,-4,-8
12486023262,-3,-14,-17,7,9,1,2,0
12486023262,-4,16,19,7,-5,-2,-2,2
12486030733,4,26,13,11,2,-2,-1,0
12486030733,4,-5,-4,-13,-2,-4,-3,-4
12486039665,-6,-34,-15,-10,-11,-1,2,5
12486039665,-2,-22,1,6,10,-4,-4,-1
12486053133,3,12,2,3,-4,2,3,-1
12486053133,-2,-19,-6,-2,0,4,1,0
12486062095,-1,-1,-4,-34,-19,-19,-7,-2
12486062095,-15,-34,-8,43,21,2,-9,0
12486076451,9,5,-2,12,5,9,-1,-7
12486076451,-16,13,8,-51,-27,-9,2,-3
12486083178,13,3,-3,51,46,31,12,7
12486083178,1,-9,-5,-5,12,-4,-1,1
12486099561,-7,8,4,5,-6,-11,-2,-1
12486099561,8,-6,-4,-8,-20,-25,-8,-2
12486101214,0,2,-4,-40,-21,-10,-6,-3
12486101214,-7,-15,2,-4,-21,19,8,-6
12486113239,-4,1,-7,4,24,-4,-2,0
12486113239,-7,-14,7,15,10,5,4,-2
12486122338,-3,2,-1,8,2,-9,-3,-2
12486122338,4,2,0,-9,-15,-4,-6,-3
12486136454,-4,7,6,-5,-10,-12,-1,-1
12486136454,-1,-15,7,22,4,18,-5,-1
12486143268,12,18,-10,-26,-6,-10,-4,0
12486143268,-5,-7,3,-15,-20,-2,-3,0
12486159605,-12,-3,-6,13,28,7,3,-3
12486159605,9,2,6,27,-5,-4,4,4
12486161080,-1,1,-12,-4,14,4,2,0
12486161080,-11,-9,1,-18,-14,-4,-2,-5
12486173184,-3,-4,-14,0,3,2,-3,1
12486173184,11,-2,0,14,4,4,-1,-1
12486189711,-4,-5,-3,-54,-26,-2,-4,-3
12486189711,2,-7,2,49,22,-1,1,-1
12486196469,6,6,8,24,5,10,0,5
12486196469,-4,1,-20,-24,3,-4,-2,1
12486203290,-9,-11,5,10,-7,-3,-5,-3
12486203290,0,0,-1,-1,-4,-2,4,-1
12486219486,-2,-6,3,-37,-15,-5,-1,-5
12486219486,-4,-9,0,9,9,-2,-2,-4
12486221155,7,10,4,15,-5,-7,-2,1
12486221155,0,1,-4,1,3,-2,-4,0
12486233237,-8,0,0,-10,-15,-8,-7,-4
12486233237,-10,-3,0,-11,-3,-5,-3,-1
12486242244,7,3,5,18,2,7,0,-2
12486242244,-3,-5,-1,-2,2,1,3,-2
12486256449,14,10,1,-1,-8,-2,-2,0
12486256449,-2,1,-5,-21,0,2,2,1
12486263274,-7,-6,5,36,10,5,3,1
12486263274,-9,-4,-5,-26,-5,-5,-2,-1
12486279657,7,2,-1,7,2,1,1,-2
12486279657,0,3,0,1,-2,-12,-10,-2
12486281114,2,3,0,-1,0,12,2,-3
12486281114,0,-6,-7,-5,-2,-3,1,-2
12486293120,-8,-4,0,-6,-2,-2,-2,1
12486293120,-11,1,3,4,3,3,3,0
12486302206,3,-6,-3,1,-2,-4,-4,-1
12486302206,6,3,-2,-1,1,-2,2,1
12486316376,0,4,-2,-15,-6,-3,-1,1
12486316376,11,6,-4,-5,4,7,4,4
12486323136,-11,-3,-6,-1,0,-4,-1,-2
12486323136,-3,-2,1,3,-10,-4,-5,-3
12486339603,10,6,2,2,-2,-1,0,4
12486339603,-4,-10,1,-7,-1,6,5,-3
12486341086,-1,-1,1,16,12,1,-1,-3
12486341086,-6,2,-1,4,1,-3,-1,0
12486353299,1,2,1,-11,-6,-4,-1,0
12486353299,6,8,-7,-12,-5,-2,-2,-3
12486362113,-10,-4,1,17,-10,-7,-3,0
12486362113,6,-2,-7,-24,-1,-5,-2,-2
12486376320,-7,-7,2,-4,1,3,3,1
12486376320,18,17,17,11,10,8,3,1
12486383315,0,17,-4,-15,-2,-5,-1,2
12486383315,-4,2,3,15,-2,-2,-3,-1
12486399527,-4,-8,-8,-4,6,3,1,-1
12486399527,-12,-28,-5,14,-6,-10,-9,-6
12486401147,7,-4,6,-19,-13,-2,-1,-2
12486401147,-12,-13,-11,-14,4,-2,1,0
12486413183,6,-4,2,12,0,6,2,-1
12486413183,-8,3,-2,7,0,5,1,-5
12486422222,-11,-11,-1,-4,5,-4,-3,-2
12486422222,7,1,-5,-18,-7,-5,-5,1
12486436481,-6,0,-3,-8,-8,-9,5,-4
12486436481,1,-3,0,4,-1,-4,21,-9
12486443175,7,9,2,17,7,6,-73,-6
12486443175,-1,4,3,-24,-8,7,76,10
12486459576,-1,-4,-11,-7,-3,3,-11,4
12486459576,-6,2,-2,19,6,-1,7,11
12486461203,1,-8,-7,-24,-7,-6,44,5
12486461203,16,3,2,0,-3,-9,-14,-6
12486473107,-28,-3,-5,-15,1,-3,-14,-7
12486473107,6,3,3,24,-3,-3,17,-3
12486482160,2,-6,-8,-5,16,2,6,4
12486482160,4,1,1,7,0,-2,-28,-2
12486496358,-4,4,16,3,-9,5,30,0
12486496358,0,4,-8,4,22,6,-20,0
12486503225,5,2,-2,-3,-2,-2,9,3
12486503225,0,2,0,13,-4,-2,-20,-3
12486519613,-4,-8,6,1,2,-2,-11,-8
12486519613,-4,0,-3,-20,-15,-13,-19,-2
12486521189,-1,0,-6,-8,-15,-8,0,-1
12486521189,-1,4,2,6,3,-2,10,3
12486533205,3,4,-5,3,-10,-1,-7,0
12486533205,0,-7,-5,-18,-3,2,-1,0
12486542212,-5,0,-2,5,-1,-5,3,-6
12486542212,-4,-3,-3,2,1,2,-15,-7
12486556410,5,3,2,-15,-7,-3,2,1
12486556410,-4,-1,11,58,12,4,0,-1
12486563194,-1,-1,-10,-31,-1,-3,-3,-4
12486563194,0,-2,-13,10,3,-1,-5,2
12486579571,-7,-12,-6,-15,9,5,4,-3
12486579571,-1,-4,0,-26,-10,-2,-3,-1
12486581222,4,2,9,40,3,6,6,2
12486581222,-4,-8,13,-35,-23,-1,-8,-2
12486593240,5,3,-26,48,46,6,1,3
12486593240,-4,-15,-2,-47,-20,-7,-8,-3
12486602074,-3,-2,9,34,3,-10,2,0
12486602074,-3,3,-13,-44,-4,9,-1,-1
12486616444,3,7,10,16,-7,-6,-6,0
12486616444,-1,3,-8,-24,-9,-5,-1,0
12486623163,-2,3,0,-9,-5,-2,-1,-1
12486623163,-9,-8,-6,30,10,0,-3,-8
12486639598,6,5,5,1,-6,-1,-1,1
12486639598,3,0,-6,2,5,5,-1,-2
12486641070,-9,-2,1,-17,-17,-7,-5,-4
12486641070,15,-2,-1,26,14,1,1,7
12486653261,-4,-14,-6,-14,-10,-7,-5,-5
12486653261,-13,-1,-5,0,-5,0,4,-3
12486662164,-9,-15,-5,-10,2,3,-1,1
12486662164,1,-1,0,7,4,8,6,-2
12486676455,9,9,8,16,0,-5,-2,4
12486676455,3,8,-3,-8,0,5,3,2
12486683264,-2,-1,0,-1,3,0,1,-2
12486683264,-8,-2,4,6,3,1,1,1
12486699588,1,-1,2,-8,-13,-9,-7,-3
12486699588,-8,-6,-5,0,5,-4,-4,-5
12486701247,9,7,-3,0,1,6,2,1
12486701247,4,8,2,0,-3,-7,-3,0
12486713278,-9,-5,-3,-6,-4,0,-1,-3
12486713278,14,15,2,-1,-1,-2,-2,2
12486722123,-1,1,1,0,0,5,-4,-2
12486722123,-9,-12,5,7,0,-1,9,-1
12486736426,-9,-5,-2,-6,-5,-3,-2,-5
12486736426,1,-1,-2,-2,1,0,-4,2
12486743194,-1,-8,1,-1,-2,0,-1,0
12486743194,9,13,1,-2,-1,-2,-6,1
12486759584,-11,3,-1,-10,-7,0,3,-2
12486759584,4,1,16,39,-10,-5,-3,-1
12486761067,3,-1,-21,-9,18,4,3,-2
12486761067,-12,-2,-6,-22,-4,0,-3,-2
12486773165,-11,-17,-13,2,-1,-3,-1,-1
12486773165,-17,5,11,-24,-21,-6,-6,-3
12486782112,2,-7,14,31,1,-2,0,-1
12486782112,11,5,5,1,-3,-5,-5,-1
12486796416,-2,-17,0,11,-17,-2,-2,-2
12486796416,5,20,-15,-33,38,12,6,-1
12486803183,-4,0,-10,0,-4,-1,2,4
12486803183,-14,-15,-22,-18,-9,-7,-6,-6
12486818801,25,26,8,1,-5,-1,-1,1
12486818801,-2,-15,-12,-1,-10,-8,-6,0
12486825683,-13,-8,-10,-27,-5,-2,-3,-8
12486825683,-12,3,5,40,23,2,2,1
12486833204,16,11,-3,-2,-3,-3,-2,0
12486833204,6,-12,1,6,4,3,4,-1
12486842223,6,-1,10,-12,-2,4,0,2
12486842223,-7,17,8,-17,-20,-7,-4,-5
12486856388,-11,8,13,12,13,0,-1,-2
12486856388,4,-23,2,14,6,-3,0,4
12486863124,-4,39,-3,-17,-17,-13,-6,0
12486863124,11,-18,3,6,0,16,1,-1
12486878880,2,0,-3,-1,5,-11,15,4
12486878880,3,-2,-7,-15,-16,-6,-30,-6
12486885675,1,8,13,31,9,4,3,2
12486885675,0,12,3,-6,1,1,3,-5
12486893153,-13,-19,-11,-16,4,6,-17,-2
12486893153,-4,-3,-2,-1,-17,-12,15,1
12486902276,-2,-7,7,-26,-14,0,-9,-3
12486902276,9,-4,-5,61,26,0,-2,5
12486916399,8,1,-4,-11,18,9,8,1
12486916399,-8,-2,-4,2,0,6,-1,-2
12486923184,4,-2,-6,-30,-10,-10,2,-2
12486923184,-10,-15,4,9,2,0,2,-2
12486938915,-1,1,5,7,-10,-2,5,-1
12486938915,2,-2,-5,-4,12,3,-2,2
12486945673,-3,-4,11,16,-9,-2,-1,-4
12486945673,-1,1,-12,-27,-14,1,-5,1
12486953172,-1,-2,-2,3,-5,-7,-7,0
12486953172,-6,-5,2,-2,-5,1,2,-4
12486962105,5,0,-4,10,11,0,0,-1
12486962105,0,-3,7,-3,-11,-10,1,-1
12486976369,4,-1,-6,-4,18,6,-3,1
12486976369,-2,13,2,-25,-7,3,5,0
12486983213,-3,-5,-3,-2,-3,-6,4,0
12486983213,-5,6,5,9,-4,6,-3,0
12486998896,-1,-8,6,5,-1,4,5,0
12486998896,0,-6,-4,15,13,4,1,-1
12487005672,-1,-4,1,-2,6,9,3,1
12487005672,9,9,-1,-8,-8,-10,-4,-1
12487022043,-13,-5,-8,-11,-14,-10,-7,-3
12487022043,-6,-2,16,31,4,1,2,-3
12487023697,-3,-11,-21,-3,21,6,-1,1
12487023697,3,-1,-5,-26,-10,-8,-2,0
12487036367,-2,7,0,-3,-5,-1,-4,-3
12487036367,-4,-7,-7,-27,-17,-9,-7,-2
12487043103,-5,-5,2,55,14,6,4,0
12487043103,1,-2,0,-11,3,-1,-2,-2
12487058874,5,2,-5,1,-5,-3,-5,2
12487058874,-2,-5,1,-6,-4,-3,6,-1
12487065647,-3,-10,-4,-10,-8,1,-3,-1
12487065647,-5,-2,-6,-9,4,-3,-2,-3
12487082064,-2,-1,2,-7,-8,-4,-3,-1
12487082064,-3,2,1,8,-6,-6,-3,-1
12487083553,-2,-2,-7,-4,3,9,2,-1
12487083553,3,1,0,27,6,2,2,1
12487096411,6,2,4,-6,-2,5,5,-2
12487096411,-3,1,-10,-15,8,-2,-2,1
12487103061,0,-11,4,46,2,-6,-6,-2
12487103061,-9,-4,2,-5,-6,-2,-2,-2
12487118760,2,1,2,-19,-9,-5,-2,1
12487118760,-6,-2,-8,8,-5,-1,-3,-1
12487125674,7,3,1,-21,-10,-9,-4,1
12487125674,-8,-12,-7,-28,-2,2,2,-5
12487141937,2,1,4,15,6,1,1,-2
12487141937,5,8,15,15,-10,-3,-5,-2
12487143634,2,8,-12,7,13,3,2,1
12487143634,-2,0,-1,3,-3,-5,-4,-2
12487155699,-7,-4,8,-20,-18,-7,-2,-1
12487155699,1,-6,-13,-19,4,3,2,2
12487164543,2,-2,4,5,-10,-5,-5,0
12487164543,0,2,2,0,7,8,4,1
12487178909,-1,-1,0,11,2,1,1,-1
12487178909,0,2,3,4,1,0,1,0
12487185700,-5,-1,-3,-34,-12,-2,-3,-3
12487185700,4,2,-2,4,0,-2,-2,2
12487202017,-2,2,-2,0,-4,1,-1,-1
12487202017,0,1,0,2,3,-2,-1,-1
12487203589,-3,2,-4,0,6,2,3,-4
12487203589,3,-3,2,-8,-8,-4,-1,1
12487215650,-5,-6,-7,-6,4,-2,-3,-2
12487215650,-3,-11,-9,18,4,2,-2,-3
12487224597,-3,2,18,-18,-11,-6,0,2
12487224597,5,2,-11,14,10,7,2,2
12487238912,5,-6,-4,3,-3,-2,-2,2
12487238912,1,-2,-5,-13,1,-4,-1,-2
12487245700,-5,3,2,1,-1,1,-1,-2
12487245700,0,4,4,4,-6,-8,-4,-3
12487262082,-1,6,-1,-14,6,5,3,0
12487262082,2,4,1,20,1,0,1,2
12487263559,0,-13,-3,-6,-7,1,-1,-2
12487263559,-4,-6,-5,-5,4,-1,-1,0
12487275743,1,6,-1,11,6,1,0,1
12487275743,-3,2,4,-10,0,-1,-3,-2
12487284704,-2,2,2,-3,-9,-11,-7,-3
12487284704,0,-1,-2,1,-2,2,-2,-1
12487298933,-6,-5,-5,-2,-2,0,3,-4
12487298933,-3,0,-2,-13,-4,3,1,0
