timestamp,emg1,emg2,emg3,emg4,emg5,emg6,emg7,emg8
6965253984,-3,-5,-3,0,0,1,-1,-1
6965253984,2,-8,-8,-11,-5,-3,-3,-1
6965254665,1,1,0,-4,-6,-5,-4,-2
6965254665,-11,3,-3,-10,2,5,2,0
6965255505,0,-9,10,32,4,-2,-2,1
6965255505,0,-1,-8,-8,1,5,1,-2
6965256304,5,7,1,5,7,0,-2,-1
6965256304,-1,-11,-3,3,-5,-2,-2,-3
6965266982,5,7,-2,-10,-6,-5,-3,0
6965266982,-1,4,7,14,5,3,0,2
6965275699,-10,2,-7,-7,2,2,2,-2
6965275699,3,-7,2,2,-5,-8,-8,-1
6965283391,-31,-6,-5,-9,-3,-2,-3,-11
6965283391,3,-7,-5,-4,-7,-11,-8,-3
6965297725,3,-4,-9,-14,-9,-5,-5,-2
6965297725,7,5,4,7,9,7,10,4
6965305561,10,8,4,-5,-1,-3,-2,5
6965305561,0,5,9,0,-3,4,6,-1
6965311973,-6,-7,3,5,-3,-4,-14,-2
6965311973,-2,0,-7,-7,-8,-12,-5,-5
6965327061,12,2,0,-6,-5,-1,5,-1
6965327061,-5,-5,-1,4,5,2,-32,3
6965335602,-2,2,1,-2,-1,6,31,3
6965335602,-8,4,-1,-3,-1,6,-11,-2
6965375135,1,-18,0,-1,-5,-11,-7,-6
6965375135,6,2,2,-6,-4,-4,-3,0
6965376084,-7,1,0,0,-4,-6,-11,-5
6965376084,-4,-18,-1,5,2,3,9,-1
6965376778,-2,-2,0,1,0,-3,1,0
6965376778,5,14,5,8,3,4,-8,-2
6965379960,2,1,-7,-11,-3,-2,2,0
6965379960,-5,-7,-1,-3,-1,-4,2,-1
6965386733,2,11,1,-4,-2,4,1,0
6965386733,5,5,9,3,-3,-5,1,-1
6965394303,-3,-9,-8,-2,1,3,3,-2
6965394303,6,11,5,1,-1,1,-2,-3
6965403237,-1,-8,-10,-7,-5,-4,-28,1
6965403237,-2,-11,5,1,-1,-3,12,-6
6965417505,2,-7,1,6,3,5,4,6
6965417505,15,9,-1,-5,-5,-6,-15,0
6965424240,-8,2,3,0,-1,-1,20,0
6965424240,-30,-26,-4,1,1,-2,11,-2
6965431776,-8,-5,0,-3,-5,5,-18,-10
6965431776,-9,-2,-2,1,-4,-10,3,-8
6965454941,27,2,-3,-4,-3,0,0,-10
6965454941,36,21,-4,0,3,17,9,17
6965455614,-15,4,5,2,1,-8,3,-3
6965455614,-37,0,-2,-3,-1,-14,-4,-9
6965463167,3,2,-3,1,0,12,-10,3
6965463167,-7,7,-3,-3,-1,-7,-7,-1
6965477256,37,-20,-7,-3,0,16,18,35
6965477256,-14,2,3,0,-4,-5,4,-26
6965485647,-5,35,14,5,5,-5,-6,0
6965485647,-31,-68,-9,-2,1,2,-10,-13
6965491754,28,102,22,0,-12,-9,-1,13
6965491754,-42,-64,-18,9,3,-2,-18,-2
6965506794,17,5,-8,-24,-8,7,19,7
6965506794,-51,-77,-33,-17,2,-8,-15,-22
6965514268,-21,2,-8,-9,-5,-1,3,-7
6965514268,24,81,63,55,-15,0,0,8
6965523189,6,17,-19,7,30,4,-3,-1
6965523189,42,3,-30,-52,-14,-11,-9,0
6965537482,-36,-52,-24,-8,6,-2,-2,-8
6965537482,71,33,15,5,11,14,9,16
6965544216,-53,-4,-4,10,-20,-10,-5,-5
6965544216,43,74,24,8,-11,-4,-5,12
6965551781,-32,-6,-8,-1,8,0,-2,-17
6965551781,31,-42,40,12,20,18,19,18
6965566725,6,53,17,4,-4,-2,-6,-7
6965566725,-31,-34,-24,2,1,1,2,2
6965574285,33,56,30,6,-5,-1,3,0
6965574285,-13,-108,-37,-28,-16,-13,-7,10
6965583234,15,-5,3,1,10,11,4,-5
6965583234,-22,64,0,-2,-6,-12,2,-2
6965597453,-3,11,13,1,-7,0,-8,-4
6965597453,-21,-3,-13,-4,11,4,-1,-5
6965604290,16,-8,-22,-14,-14,-11,8,9
6965604290,17,104,33,-20,-22,-1,-6,5
6965611797,-9,7,-12,-15,-2,3,-1,-13
6965611797,-1,8,3,16,23,0,10,2
6965626821,-13,-36,-10,39,17,19,-4,-3
6965626821,20,-42,13,8,6,-6,4,9
6965634292,-1,-53,-10,-32,-5,-27,-6,3
6965634292,-10,-13,-44,-42,-55,5,-18,-11
6965643125,-13,-36,20,28,34,-8,6,0
6965643125,6,-27,-1,14,6,8,1,0
6965657438,2,-45,5,39,6,8,-1,-3
6965657438,-7,27,-12,-28,-11,-15,-3,-4
6965664230,4,1,13,14,-14,-11,-3,-1
6965664230,-9,-31,-11,17,18,17,8,-7
6965671813,-3,-3,1,-15,28,0,-4,-5
6965671813,-7,6,-3,-5,-6,-3,-4,-4
6965686791,6,-11,-24,-27,-27,-7,0,2
6965686791,-7,0,15,61,4,2,-1,-3
6965694322,2,-3,-34,-67,-9,-7,-7,-3
6965694322,0,16,-12,-7,-4,1,1,3
6965703139,-6,2,10,-8,11,5,3,2
6965703139,-9,6,-8,-10,-3,-2,-7,-6
6965717392,-9,8,22,36,-7,-2,-3,-7
6965717392,8,37,17,37,12,0,3,3
6965731720,-9,7,-20,-50,-5,-4,-5,0
6965731720,4,14,13,9,-6,-4,-6,0
6965739901,10,5,-11,-6,-13,-5,-2,2
6965739901,-11,-12,-22,-32,0,-5,-7,-7
6965746808,4,-6,19,36,11,10,5,2
6965746808,-10,-25,-1,-19,-4,1,2,-2
6965763177,-5,-17,-14,9,1,-8,-4,-2
6965763177,3,9,1,0,-4,5,3,-1
6965764598,2,-6,5,4,-3,-7,-7,-3
6965764598,-6,2,-3,-5,3,1,0,1
6965777379,4,9,8,8,-7,6,3,3
6965777379,1,7,-2,4,1,-15,6,-5
6965784104,-5,4,-1,-10,-2,14,-13,1
6965784104,2,12,-5,-11,3,-12,-9,-6
6965799988,-7,-14,4,8,-4,13,14,0
6965799988,-1,-10,-1,-3,6,-1,7,3
6965806725,-7,-22,-2,-8,-8,-3,5,-2
6965806725,8,-10,-3,-2,-4,-3,2,-1
6965814228,3,-5,4,14,5,-6,12,3
6965814228,-7,8,-2,-5,0,0,5,-1
6965823269,-7,3,-5,-6,-6,-5,0,-6
6965823269,1,7,4,3,1,-6,-3,1
6965837465,3,13,2,3,-2,8,-12,-5
6965837465,2,3,-3,-8,3,2,-6,1
6965844282,0,-8,3,0,-6,-12,5,-2
6965844282,-8,1,-1,-7,-2,11,2,-1
6965859922,6,2,-1,6,0,-6,-9,4
6965859922,-5,-8,-5,1,5,5,4,-5
6965866726,-3,7,0,-2,-4,-4,11,-5
6965866726,-8,2,-3,-3,-3,-2,16,0
6965874217,12,18,3,-3,-2,-9,-3,3
6965874217,12,-6,6,3,2,8,-23,0
6965883162,-2,24,0,-3,-4,-6,1,2
6965883162,-7,-20,-16,-3,1,-1,-5,-7
6965897892,-22,0,-1,22,1,0,4,-2
6965897892,2,12,9,1,0,-2,4,0
6965904245,25,-15,3,-3,-2,-6,-10,2
6965904245,7,44,0,-5,-6,1,-4,0
6965919884,-34,-38,-19,3,8,1,-8,-11
6965919884,2,49,3,-13,-6,-3,-8,-1
6965926682,-5,-27,-2,-4,-5,2,-6,1
6965926682,15,-12,25,21,15,6,7,6
6965934264,8,-48,-17,-8,-3,-2,3,3
6965934264,-7,32,16,-7,4,5,1,1
6965943165,0,13,-1,-22,-6,-3,0,3
6965943165,-5,-32,-12,-8,-21,-16,-14,-11
6965957426,10,45,1,13,-6,2,0,-2
6965957426,-27,-78,-15,-8,12,-1,-2,1
6965964183,16,21,-6,-4,-7,0,-2,7
6965964183,28,13,-5,-7,5,-1,3,1
6965979947,-25,40,9,-18,-10,6,-6,-4
6965979947,17,-12,-1,-9,-16,-10,-8,-3
6965986664,-33,-33,-2,-1,3,-1,-7,-6
6965986664,17,45,20,-1,6,0,-8,0
6965994343,3,6,-14,-17,-2,-1,2,4
6965994343,-5,9,1,13,0,4,4,3
6966003180,-22,25,0,3,-12,-6,3,-4
6966003180,3,25,4,-4,7,-1,-4,1
6966017407,15,-22,4,-5,0,-1,-3,6
6966017407,1,36,11,10,10,12,13,5
6966024243,5,-8,-8,6,-8,-12,-8,-5
6966024243,-14,-2,6,20,-13,7,9,-4
6966039914,3,-24,3,1,25,-6,3,-1
6966039914,-21,-24,-15,-9,-15,5,-5,-12
6966046700,12,4,0,4,4,1,-6,10
6966046700,-5,-38,-14,-16,-26,-12,-7,-2
6966054301,6,-2,12,-1,1,10,5,0
6966054301,0,-8,-12,-14,12,-1,-1,-5
6966069186,-5,-2,1,-7,-9,-3,-3,-8
6966069186,-14,-20,-8,23,6,-8,-11,-2
6966077455,16,10,1,28,-7,-15,-3,5
6966077455,-8,-14,-2,-22,-3,-6,-12,-7
6966084255,-3,-11,-3,10,-4,3,2,-4
6966084255,-10,-11,-11,-62,9,0,1,2
6966099989,0,3,-2,-4,-4,6,2,-4
6966099989,9,-6,-16,7,-5,-16,-4,2
6966106647,2,-9,-10,-2,13,9,6,-1
6966106647,-12,-1,5,-3,-14,0,6,-5
6966114292,-4,-8,-5,16,20,11,3,-2
6966114292,12,9,-11,-31,-11,4,4,6
6966129288,-6,-10,-1,1,-2,2,2,1
6966129288,9,16,7,16,2,-6,-5,3
6966137491,-16,4,-4,-15,-6,6,2,-5
6966137491,16,20,5,27,5,0,-10,6
6966144176,-3,1,6,6,-3,6,23,1
6966144176,4,-6,-10,3,9,-5,-3,-1
6966159957,14,22,5,-9,-11,-8,-4,5
6966159957,0,-7,9,20,12,2,2,-1
6966166678,9,15,8,3,15,12,-11,-1
6966166678,-18,5,-2,4,6,16,33,10
6966174156,-13,-12,-8,-18,-17,-20,-13,-15
6966174156,-2,-1,4,7,-6,4,6,3
6966198146,13,0,-5,-7,-3,-14,-6,-6
6966198146,-6,-9,-2,5,3,-10,-33,5
6966198853,6,-5,7,7,-4,11,26,2
6966198853,2,-9,-4,-1,-4,-9,-10,-4
6966204106,-26,2,-1,-4,-4,-7,4,-6
6966204106,1,-7,-2,-4,-6,-10,8,3
6966219987,-2,-9,-2,-3,2,19,-9,-3
6966219987,-2,-10,1,0,-4,-3,-9,-2
6966226745,19,5,-1,-5,-2,-10,-2,3
6966226745,-7,-2,-2,1,2,5,-6,-5
6966234248,7,-9,3,0,-1,-17,-13,1
6966234248,11,-2,-4,-3,-6,17,14,-5
6966249260,-33,2,7,4,0,2,5,-1
6966249260,24,-19,-4,0,-3,2,3,1
6966257456,5,12,-4,-9,-8,-8,-1,-3
6966257456,-19,-6,9,12,6,-2,-5,-2
6966264165,-16,-9,-25,-13,-3,-7,-7,-6
6966264165,15,62,14,7,5,11,5,5
6966279959,-6,-57,7,14,-16,-11,-6,-7
6966279959,1,47,-8,-2,13,-6,-3,-4
6966286659,32,46,4,-7,-5,-1,-11,8
6966286659,-3,-17,-15,-12,-6,-3,-2,-7
6966294275,-29,-55,30,30,0,0,-16,-1
6966294275,-20,41,-30,-19,2,-8,5,-3
6966309188,6,-98,7,40,2,4,-4,-2
6966309188,-5,8,-25,-38,21,16,11,-4
6966317494,5,67,41,38,-12,-18,3,3
6966317494,1,-35,24,21,-14,2,7,2
6966324310,5,30,-50,-75,-7,-10,-18,-16
6966324310,19,2,34,27,-9,13,-16,21
6966339959,-7,5,-58,-47,26,7,12,-9
6966339959,3,-38,1,-8,-22,-22,-84,-6
6966346772,13,66,95,-22,22,22,50,16
6966346772,-3,-30,-65,15,3,-5,27,-13
6966362484,-8,-8,10,-6,1,7,17,17
6966362484,-2,2,-21,-37,-20,-10,25,-27
6966369276,10,-18,-4,1,20,-10,-123,3
6966369276,-13,52,28,14,-8,11,-26,8
6966385531,17,2,-8,36,56,11,42,6
6966385531,40,10,11,22,-21,-2,-4,-4
6966387137,-60,-4,-12,-12,-39,-7,99,-19
6966387137,-19,-27,3,-13,1,-13,35,-5
6966399305,15,25,-11,4,12,16,-59,12
6966399305,-2,8,22,19,10,-20,-8,6
6966408126,-15,-15,9,-11,-16,11,14,-9
6966408126,3,-7,-7,2,-2,-1,1,-5
6966422459,-2,-15,9,-49,-67,-15,9,-9
6966422459,7,-2,-12,39,75,21,25,11
6966429234,-3,-41,-11,38,-4,9,-14,-2
6966429234,-8,-20,16,-14,-5,-1,2,-6
6966445609,3,-6,2,-19,6,-7,-11,-6
6966445609,-2,-2,-11,15,-8,9,-11,8
6966447067,-4,-33,-16,-31,-10,-8,-5,-1
6966447067,-10,-15,3,-2,-10,-30,-58,-25
6966467418,-6,-2,-1,-20,-17,7,78,2
6966467418,-9,-9,10,23,2,-2,-46,5
6966468116,7,17,-25,4,13,7,16,6
6966468116,-7,3,16,4,-15,-7,-8,-9
6966483184,8,3,-27,-18,12,-5,-21,3
6966483184,-11,-11,2,-30,-13,2,16,-1
6966489238,7,11,11,45,13,-6,-8,-1
6966489238,3,2,-4,-11,0,-1,1,9
6966504941,3,27,2,25,0,-16,-24,-5
6966504941,1,0,4,-6,0,14,35,3
6966505615,0,5,4,4,-7,-11,-21,-1
6966505615,12,9,-3,4,13,6,37,10
6966527414,-13,6,2,7,-1,9,9,-4
6966527414,-10,-12,-5,-18,-10,-8,-32,-5
6966528125,7,1,2,-3,5,-4,-25,11
6966528125,9,-1,-6,1,1,2,6,-5
6966543162,-9,-9,-3,1,2,1,7,1
6966543162,-10,-16,-5,-19,-12,-7,12,-4
6966549239,6,4,-7,5,-2,-4,0,-2
6966549239,-3,-4,3,2,-3,2,-23,-8
6966564929,21,7,0,3,4,-2,2,1
6966564929,-16,-2,0,-9,-9,-11,-4,1
6966565605,-2,-6,3,7,7,23,12,10
6966565605,19,-2,0,-2,-2,-4,3,7
6966587409,-31,-21,-3,-8,-7,-2,-12,-7
6966587409,4,0,0,-3,1,-3,11,-3
6966588088,-1,3,-3,3,0,-7,13,-7
6966588088,-12,1,-4,-2,-4,-3,-18,1
6966603121,19,7,-1,-10,-6,3,-5,1
6966603121,8,20,7,10,4,-1,-1,5
6966609157,-12,13,-9,4,0,-2,-5,-5
6966609157,8,-52,-16,-18,0,2,11,4
6966624791,-2,53,20,12,-10,-6,-1,-3
6966624791,12,27,-4,-6,6,6,11,3
6966625607,18,-6,-13,-6,3,6,4,4
6966625607,-22,-10,22,40,7,0,4,-7
6966647379,-21,38,-26,-34,3,-6,-16,-8
6966647379,-11,-39,5,7,-6,0,5,-3
6966648092,7,22,7,-19,-6,-6,-1,1
6966648092,16,-43,12,-2,-22,-10,-6,5
6966663146,-4,51,-34,-28,11,0,-11,-1
6966663146,-12,-32,10,17,5,4,10,-3
6966669222,22,-26,-4,-4,6,2,25,7
6966669222,-23,36,26,20,-12,2,-15,-4
6966684961,-4,-61,-5,8,23,3,-16,-5
6966684961,30,54,3,10,-11,-1,-8,-4
6966685588,11,57,9,10,5,-5,2,5
6966685588,-19,14,-7,-20,2,7,13,2
6966708743,15,-11,-14,20,-5,-6,0,5
6966708743,-8,11,25,26,-9,-7,-2,1
6966709528,-34,-66,-42,-34,-2,0,11,-11
6966709528,9,29,-5,-8,1,1,-17,0
6966723192,-4,6,16,15,-5,-7,-8,-3
6966723192,2,-30,-14,-30,0,-3,15,0
6966729129,5,43,24,25,-13,-2,-2,-3
6966729129,-5,18,-21,-32,10,4,-6,-10
6966744774,7,-11,11,34,9,-6,30,9
6966744774,-6,-1,-15,-23,13,9,17,0
6966745615,-3,-9,11,17,-27,-10,-12,-2
6966745615,3,-25,-9,-9,21,-12,15,1
6966767368,8,-42,0,-12,-23,19,-9,-3
6966767368,-12,-20,7,21,7,-1,-2,-3
6966768138,-3,-12,-11,-32,0,1,-6,-4
6966768138,11,-6,-9,3,8,-4,5,1
6966783110,2,10,22,15,-14,-8,-6,0
6966783110,-10,-15,-16,-51,13,9,6,-3
6966789263,3,4,8,28,-3,1,-13,2
6966789263,-18,-20,3,-22,-26,-15,-12,-13
6966804799,-1,-9,8,10,-2,0,0,2
6966804799,2,-1,-19,16,2,0,-3,0
6966805631,-7,-4,4,-13,8,-5,-5,-6
6966805631,8,38,-13,14,-8,-3,-5,2
6966820586,-6,-10,7,-1,-8,-1,4,-3
6966820586,9,8,10,7,4,1,-11,-2
6966826768,-6,12,-30,-15,1,-6,19,0
6966826768,5,24,9,20,2,4,4,3
6966843094,-3,-13,7,-10,2,5,3,-4
6966843094,-2,16,8,0,-11,-12,1,-1
6966849206,9,11,5,12,7,-2,-13,1
6966849206,-3,-3,3,-8,-3,8,14,0
6966872415,-4,-6,7,-3,1,-1,-6,-5
6966872415,6,11,-3,-2,-2,-7,1,-6
6966873090,-7,-9,-5,-12,-2,-4,9,3
6966873090,-5,-8,-2,6,5,9,-2,0
6966880571,8,1,-7,-3,0,0,-35,-1
6966880571,-7,-13,-9,-4,-1,-17,31,1
6966886757,-1,-21,4,0,-1,6,-30,-3
6966886757,14,-17,-6,-3,-3,6,31,6
6966903164,-2,-15,-4,-3,3,4,-4,1
6966903164,-10,1,-5,-12,-7,3,-16,-3
6966909236,-4,-4,3,8,3,-11,-1,-8
6966909236,-15,-16,-1,-1,1,1,-4,-3
6966924926,1,-18,-8,-10,-1,-10,-6,-2
6966924926,-1,-6,1,-1,-5,6,-5,-1
6966925625,-2,-7,6,5,-1,5,17,-3
6966925625,11,0,-5,-1,-3,-13,-35,-2
6966948683,-4,18,-3,-12,-3,5,12,3
6966948683,-9,15,-6,7,0,2,-6,2
6966949503,4,1,1,5,2,0,3,0
6966949503,-4,13,-4,-17,-1,-15,-15,-2
6966961771,12,62,12,12,1,7,1,3
6966961771,-16,-76,-12,16,-7,1,-10,-6
6966969129,7,25,-5,-9,2,-5,-7,5
6966969129,5,1,3,5,-11,-8,3,-9
6966984222,-47,-52,-21,-12,3,-3,8,3
6966984222,41,74,13,-3,-13,1,8,4
6966991718,-28,-23,6,24,17,14,-6,-4
6966991718,20,-3,-19,-32,-4,4,5,2
6967000601,-10,-39,-6,-5,-8,-12,-8,-10
6967000601,-15,-25,-33,-4,-2,-3,-4,4
6967006724,-3,45,12,-11,-3,-6,-5,-7
6967006724,-6,-13,18,39,0,0,0,3
6967021759,15,32,14,12,-10,-1,3,3
6967021759,10,52,0,-43,5,-8,-9,0
6967029230,-8,-62,-13,-45,-4,2,25,-3
6967029230,6,57,15,32,36,30,-11,9
6967044227,7,-60,-32,-11,-14,-15,-5,-14
6967044227,-23,-4,33,35,-1,2,-4,-3
6967051633,25,15,13,77,-3,-5,-1,8
6967051633,-38,-26,-25,-36,0,-4,5,-9
6967060556,25,41,8,-3,9,7,7,8
6967060556,4,-53,-14,-18,2,5,-1,-1
6967066742,-12,9,-9,-51,-35,-17,-13,-1
6967066742,-4,1,19,54,15,7,3,-5
6967081711,8,33,3,-1,1,1,11,-3
6967081711,0,6,-9,-3,8,3,-4,5
6967089255,-8,-2,4,-5,10,-5,-6,-1
6967089255,1,8,-4,-7,-38,-11,8,-4
6967104078,-8,3,0,-22,16,-6,35,-2
6967104078,-4,-10,6,12,25,-2,1,-6
6967120557,6,-13,-4,0,-33,-3,-16,-1
6967120557,-19,-22,1,-20,24,2,-13,-11
6967122075,1,-20,-4,-1,-13,-4,-2,2
6967122075,0,-24,2,-7,-16,10,4,0
6967126740,0,0,11,44,40,-18,-1,-6
6967126740,-1,-25,-30,-35,-21,10,0,4
6967141729,5,2,-11,-1,-3,-9,-13,3
6967141729,3,5,-2,-15,-15,-14,-8,-3
6967149207,-10,-1,-3,-9,-8,-1,-8,-8
6967149207,-4,-4,-2,-9,-10,-9,7,-1
6967164209,-2,6,8,8,-2,7,2,-5
6967164209,12,30,-5,25,5,6,4,7
6967171737,-1,-4,-15,-17,4,9,-1,-3
6967171737,8,22,16,16,-7,-2,4,3
6967187371,1,-1,-10,-2,10,-1,-13,1
6967187371,4,9,0,-15,-8,-7,-4,-3
6967188087,-1,5,-3,-1,-7,-1,5,-3
6967188087,7,3,-4,-13,1,-6,-16,6
6967203150,-3,11,11,7,-9,-15,-4,-4
6967203150,-3,-1,-3,-2,3,12,-5,0
6967209077,7,9,-1,-7,1,-4,6,3
6967209077,5,0,4,12,4,3,-1,-1
6967224243,-6,0,-1,-4,-4,-7,8,-5
6967224243,2,-2,3,3,-2,3,-3,-8
6967231690,-10,-21,-3,-3,1,-12,15,3
6967231690,-15,-16,-2,-1,0,15,-4,-6
6967247400,-3,-19,2,7,3,-7,-17,3
6967247400,-5,-10,-3,-9,-3,8,16,-5
6967248154,12,-2,-1,3,-1,10,-19,2
6967248154,-8,2,-5,-4,0,-10,20,-3
6967261642,6,3,-2,1,1,3,0,-2
6967261642,-6,-8,4,2,-4,-4,-10,1
6967269145,-6,9,4,-2,1,5,9,-9
6967269145,-6,-27,-4,3,0,-1,-1,9
6967284207,-6,-7,9,-7,-3,4,-12,-1
6967284207,13,7,-4,3,-2,-14,-2,2
6967291598,4,9,7,1,-5,6,-3,2
6967291598,5,35,-21,-3,2,-6,2,-3
6967308732,-31,-54,-3,-3,-1,-8,-9,-7
6967308732,-6,30,7,11,-4,13,7,-4
6967309709,10,-41,-18,-22,-8,-2,-16,7
6967309709,-3,50,12,24,23,13,0,-9
6967321735,20,33,17,-11,-7,10,7,11
6967321735,-9,-5,-21,19,10,-4,4,-2
6967329167,2,16,4,16,8,3,-2,-3
6967329167,8,-14,1,-1,-19,-13,-1,4
6967344222,-8,100,30,-21,-5,-2,-10,-5
6967344222,-5,-72,-9,-33,-2,-5,0,-1
6967351711,-7,-35,4,32,-10,-3,-2,-3
6967351711,24,35,-24,-42,-4,-14,-11,3
6967367422,-29,-65,-8,18,22,16,7,-7
6967367422,20,29,11,11,-12,-10,13,11
6967368065,-19,63,-8,-12,6,4,-20,-8
6967368065,-4,-41,19,4,5,11,10,5
6967381738,-10,-76,-31,3,-7,-12,-21,-14
6967381738,-3,7,-15,-50,-13,-4,-4,0
6967397410,-9,-13,0,34,1,3,10,5
6967397410,18,15,2,-18,-13,-13,0,-1
6967404165,2,17,1,0,7,19,9,6
6967404165,-8,-25,-9,-9,8,1,7,-2
6967411736,15,30,10,-8,-8,-8,-14,3
6967411736,-37,5,-9,1,-19,-16,-15,-7
6967427425,23,14,-8,-7,3,-3,0,-11
6967427425,-2,32,12,16,4,2,23,12
6967428066,5,-2,-7,-22,-11,11,-16,-2
6967428066,3,-24,-2,12,19,7,10,2
6967441738,12,-1,-9,-1,2,-10,-6,1
6967441738,0,-10,9,37,-21,-14,-21,-13
6967449236,-11,-21,-3,-19,-4,-1,7,-4
6967449236,10,-20,4,11,16,8,4,7
6967464197,-8,-18,9,12,12,9,-5,-7
6967464197,-6,-30,10,5,16,7,5,5
6967471790,4,-14,-2,-19,-1,-3,11,2
6967471790,2,-3,-5,-6,-24,-3,-7,-3
6967488756,14,10,5,12,5,9,13,12
6967488756,-5,7,-1,0,3,5,-16,-3
6967489674,-4,6,-19,-15,6,-3,12,-6
6967489674,0,-5,5,6,-9,-3,0,1
6967509883,3,21,-17,-19,-9,-17,-9,-1
6967509883,3,-1,7,8,-6,-2,3,-3
6967510568,3,-1,4,10,5,0,11,2
6967510568,-1,12,4,-4,3,-3,4,-4
6967524225,-5,2,-1,1,-19,5,-3,-2
6967524225,4,16,-5,-3,9,-3,-25,1
6967531704,-10,-13,-6,-12,2,2,1,-4
6967531704,1,-4,-1,0,4,6,17,1
6967547328,-4,-8,0,3,-6,-8,-7,-1
6967547328,-6,2,3,-5,2,5,3,-1
6967548041,16,3,-3,4,1,-4,-6,6
6967548041,-1,-1,3,0,-8,-4,4,-3
6967561683,-5,-2,-7,0,-5,6,-9,2
6967561683,-4,4,2,-9,-9,-20,-15,-12
6967569124,-10,4,3,11,9,13,25,4
6967569124,6,-5,4,5,5,2,0,-3
6967584248,2,-3,-3,-3,-4,-11,4,1
6967584248,-3,-7,-6,-10,-8,1,-10,0
6967591678,5,-4,4,1,-4,-4,2,-2
6967591678,-16,-28,-6,-4,1,-5,-9,-10
6967607359,7,-8,-1,2,-3,5,9,6
6967607359,0,-5,-2,-8,-4,-5,10,0
6967608046,-1,-7,0,8,-3,-6,-5,-3
6967608046,-7,0,-4,-11,-2,-1,-6,-5
6967621736,0,3,3,-3,-7,-6,-20,2
6967621736,4,11,-3,15,5,4,5,0
6967629210,-16,-5,-7,-12,-5,-4,-9,-4
6967629210,-2,1,3,5,-4,-4,-2,-3
6967645573,-1,8,-3,-8,1,0,5,-2
6967645573,11,-4,-5,4,1,0,-3,2
6967651745,-6,8,6,-7,-8,-3,-7,-1
6967651745,-5,-5,-2,10,6,0,-10,-3
6967667766,-5,5,7,26,-2,1,6,0
6967667766,0,-20,-8,-17,9,7,4,2
6967674812,14,22,6,9,2,3,-2,2
6967674812,-1,2,-7,-11,-4,-4,-4,0
6967681732,20,10,22,-12,-8,-1,4,7
6967681732,-42,-23,-19,14,0,-4,-6,-14
6967705580,-9,7,-9,3,-5,-7,-6,-4
6967705580,13,14,16,-8,-2,0,-4,2
6967707033,-12,-36,-20,-13,6,0,4,-2
6967707033,17,-23,10,12,-11,-2,-4,3
6967711666,2,4,-5,-25,7,0,-3,1
6967711666,1,-16,-1,14,0,-1,-1,-1
6967727319,-3,30,5,-10,-5,-2,-2,-3
6967727319,-2,-17,-5,-11,0,6,3,-1
6967728118,0,-6,8,9,-7,-6,2,6
6967728118,11,-30,-4,2,3,5,-3,2
6967741667,-9,3,1,8,-4,-4,-6,-7
6967741667,1,40,-11,-31,-1,1,4,-2
6967749188,24,6,6,4,1,-1,-11,0
6967749188,-24,26,-12,-21,-15,-12,-4,2
6967764164,-15,-4,-7,3,0,3,-2,0
6967764164,-6,36,11,26,10,-3,2,-4
6967771686,2,12,-1,1,-5,6,1,-4
6967771686,21,21,0,-11,6,-9,-3,1
6967787358,-18,-3,-13,-15,-8,1,10,-5
6967787358,2,3,7,-1,14,16,5,4
6967788015,3,-28,2,38,10,-4,6,4
6967788015,-3,-19,-6,-8,-9,-4,-7,-5
6967801618,-2,-10,2,-1,-7,-12,-6,0
6967801618,0,-21,-6,-19,-13,-8,-2,-2
6967809184,4,-8,-6,-5,-4,1,-4,-3
6967809184,-2,-5,9,34,-16,-2,0,0
6967824182,4,-9,-9,-22,11,-2,1,-2
6967824182,-2,2,-9,-6,4,-5,-5,-1
6967831682,-6,7,14,7,-12,7,5,0
6967831682,-2,14,-11,-7,2,-1,0,1
6967847279,4,1,-6,24,5,-3,-1,-1
6967847279,-2,2,15,-14,-6,-1,-3,-3
6967848191,-6,-2,5,-6,7,1,7,3
6967848191,6,6,23,-9,10,8,3,4
6967861644,8,5,-9,8,-4,-1,-4,-10
6967861644,-2,6,-22,-19,-19,-16,-22,-3
6967869209,-3,3,-10,-8,-8,-8,2,-2
6967869209,-8,-6,-6,-9,-12,-1,3,-1
6967884055,5,8,5,-3,1,-2,-3,0
6967884055,-1,5,8,9,-4,-3,1,-1
6967891733,-3,-9,-25,-33,-2,6,2,-3
6967891733,-4,-8,-6,1,-2,-3,-10,-5
6967907336,-3,-2,8,5,3,4,8,1
6967907336,5,-1,3,10,-8,-13,1,3
6967908016,-10,6,13,9,10,12,-4,-5
6967908016,-6,-1,-1,5,-3,-5,-23,-5
6967929833,-2,-10,-3,-9,-5,4,7,-1
6967929833,5,7,4,5,1,-5,-8,-1
6967930522,-6,-4,-17,-3,-2,-7,9,0
6967930522,-5,1,-2,-4,5,4,13,-4
6967944203,15,16,4,5,1,-3,-3,2
6967944203,-5,-4,2,0,-3,-13,-24,-3
6967951714,3,-5,-6,-8,-3,17,-32,-1
6967951714,-9,4,0,8,8,3,16,1
6967966686,-6,-18,-2,-2,-4,-15,-46,-2
6967966686,3,-26,-3,3,3,16,21,4
6967982403,1,-19,3,-1,-1,-16,-5,-6
6967982403,-7,-16,-4,-3,0,0,3,-1
6967989819,-1,-5,-3,-2,-3,-6,0,-3
6967989819,-4,3,-1,-3,-2,4,-4,-1
6967990477,1,6,4,5,-2,-6,2,1
6967990477,-1,-4,-6,-3,-1,-2,4,-1
6968004184,12,-10,-2,0,-3,4,16,0
6968004184,3,6,-1,-3,-4,-4,2,-4
6968011569,-1,-5,2,1,5,6,8,1
6968011569,-5,-4,-5,2,-2,-15,-11,-4
6968026612,-18,22,9,5,5,22,8,8
6968026612,21,6,1,0,-2,5,2,4
6968034826,-2,37,2,1,-1,-9,-8,-5
6968034826,-38,-56,-14,-4,-4,-3,-10,-8
6968049865,15,23,3,1,2,2,-3,-2
6968049865,4,99,5,-11,-4,4,3,-4
6968050508,10,5,1,8,-2,-5,6,3
6968050508,-12,60,-2,12,-2,2,7,3
6968064198,-13,-26,-3,7,4,1,7,-6
6968064198,-1,66,2,-7,-2,-3,5,2
6968071628,-40,-78,-9,-19,-21,-17,-14,-16
6968071628,12,41,-5,2,16,13,4,-1
6968086704,-12,-14,4,-6,1,-4,-6,-1
6968086704,1,-7,-38,0,2,1,1,3
6968094871,9,61,19,20,2,2,3,4
6968094871,12,-40,21,27,2,1,0,5
6968109777,13,46,-2,0,-10,-5,2,1
6968109777,-7,-35,-24,-42,-2,1,-1,-3
6968110639,-3,-16,-22,-26,-9,-2,1,2
6968110639,14,19,21,-26,0,-3,-3,0
6968124119,5,11,-8,-20,-6,-2,-1,2
6968124119,-11,-25,24,26,1,-3,-4,-1
6968131700,-1,-6,3,22,11,10,0,0
6968131700,13,7,4,9,4,3,3,3
6968146729,-12,1,-9,-5,-12,5,31,3
6968146729,-9,-6,-2,-4,16,-4,7,-4
6968154859,-6,35,-6,-27,-6,-2,-8,-2
6968154859,8,23,-6,17,0,-7,-19,-4
6968169860,-4,-26,-28,-22,-4,-4,-4,-3
6968169860,-10,-44,14,75,-43,3,-2,-6
6968170528,10,-41,-31,-59,41,0,5,6
6968170528,7,-31,6,-3,-20,-1,-9,-8
6968184184,-12,-29,9,37,5,-1,-1,1
6968184184,-1,-24,14,-5,20,9,-13,-7
6968191701,-3,-18,-1,32,-9,-5,-19,3
6968191701,4,-9,-15,-12,-4,-19,-8,3
6968206663,8,9,4,7,9,9,-24,-3
6968206663,0,-12,0,-13,-14,-5,8,-4
6968214907,5,2,5,4,-7,1,15,3
6968214907,1,12,-8,-12,11,-4,-10,1
6968229792,-1,7,20,4,-8,-5,-5,0
6968229792,-13,-19,-22,-25,5,-5,-7,-1
6968230507,-3,-1,0,8,0,4,-5,-5
6968230507,-3,-3,-1,-2,0,13,14,1
6968244081,-3,-13,-6,-12,-1,-6,3,-5
6968244081,-5,-2,16,-3,-10,-10,-17,-7
6968251674,1,8,1,5,8,4,27,7
6968251674,3,10,-12,-7,-6,2,-4,-1
6968266676,-2,6,2,-6,-4,-2,3,0
6968266676,1,4,-4,-4,4,-10,-10,-1
6968274842,0,-3,3,1,-13,-10,-1,-7
6968274842,-6,-2,4,-2,4,7,1,2
6968289829,3,7,-6,4,4,-2,0,-2
6968289829,-3,-8,-8,-4,1,4,8,2
6968290546,3,10,6,7,-8,-6,-8,-3
6968290546,3,0,0,1,-2,-2,18,4
6968304185,4,5,-6,-5,11,3,-7,-1
6968304185,-2,-3,6,1,-3,-8,17,4
6968311661,-5,11,4,0,-2,0,-13,-6
6968311661,-5,-12,-5,-6,-5,2,43,0
6968326683,15,-4,-1,3,-2,6,-11,6
6968326683,-1,12,1,-7,-3,-6,-14,0
6968334787,-6,-9,1,-3,-3,-4,14,-7
6968334787,2,-6,-1,-2,-1,1,11,4
6968358071,-10,-12,-2,-1,-1,-8,8,-3
6968358071,5,-4,-4,1,3,7,-2,-2
6968358726,3,-1,1,3,0,-4,-2,-2
6968358726,-9,-2,-2,-4,-3,3,-15,-5
6968364145,1,-4,-1,-4,-1,-1,5,0
6968364145,0,0,0,-9,0,2,8,0
6968371636,-1,-1,-6,5,0,2,-10,-1
6968371636,-2,-6,-3,0,0,-2,-9,-2
6968386654,2,-6,2,-10,-3,-5,-7,-1
6968386654,0,-3,1,21,1,-3,10,0
6968394951,-5,-2,4,-6,-3,8,4,-1
6968394951,4,0,-5,-8,-4,-4,-9,-4
6968409841,-5,-3,-9,-2,-10,-8,1,0
6968409841,-7,-3,5,-1,6,3,2,-4
6968410506,7,2,0,0,5,5,-4,2
6968410506,3,6,9,3,-4,-3,-4,1
6968424165,-1,-28,-5,7,5,2,1,-2
6968424165,1,17,-1,6,-7,-5,-8,0
6968431655,-13,-34,2,5,-1,-5,0,-2
6968431655,4,23,-13,-16,-7,-3,-14,-1
6968446677,7,16,-9,-12,4,-3,0,0
6968446677,5,-2,0,3,2,7,0,2
6968454945,0,-4,0,0,4,-2,0,1
6968454945,-2,0,-2,0,0,-2,-4,-4
6968469861,-3,11,11,9,-3,1,-4,0
6968469861,-21,-18,19,-8,-9,2,2,-6
6968470525,7,8,-52,-52,-6,-4,-4,2
6968470525,3,-8,5,25,15,10,2,0
6968484190,0,6,1,5,2,-5,-9,-2
6968484190,4,4,-1,-14,-7,4,-5,-1
6968491602,-6,23,16,7,-2,-2,5,0
6968491602,6,2,1,-9,-7,-8,-2,-1
6968506678,6,23,4,8,-12,-5,2,-4
6968506678,-6,4,-17,23,26,7,5,2
6968514838,-7,-16,2,-23,-16,-15,-57,-5
6968514838,12,0,-1,18,24,17,29,8
6968538034,4,-2,17,19,1,5,7,-1
6968538034,-12,-19,-18,-28,-4,2,1,5
6968538717,-1,-6,8,12,5,4,5,-4
6968538717,-7,-10,-6,-6,-5,-9,-3,-1
6968544071,5,-14,-3,-7,-13,-4,-2,2
6968544071,7,8,10,5,11,-2,-9,-4
6968551658,1,-9,-5,6,6,14,36,8
6968551658,-6,-11,1,2,-5,-6,-16,-3
6968566691,-2,0,3,9,0,-2,5,-1
6968566691,8,0,-16,-25,-13,-8,-5,-1
6968574738,9,8,5,-8,-12,-16,-8,-2
6968574738,-14,-10,2,-2,-1,3,-5,-4
6968589743,-3,-1,-4,1,11,0,-1,0
6968589743,5,4,17,14,2,4,5,1
6968590575,-3,-8,0,-2,-1,6,4,0
6968590575,-6,-6,-7,-6,0,-8,-6,-7
6968604198,-22,-20,-4,11,3,1,5,-4
6968604198,10,0,-3,-14,-1,-5,0,1
6968611685,-2,8,17,8,-6,2,8,2
6968611685,3,8,2,0,-3,-4,-7,0
6968626687,-12,-20,-4,-14,-1,2,-3,-5
6968626687,-4,-9,-12,7,2,2,21,3
6968634716,7,6,11,8,8,8,-2,3
6968634716,3,6,6,4,-5,-7,-17,3
6968649827,-6,-2,-15,-22,-8,-3,9,-4
6968649827,7,8,-5,4,0,-8,-10,1
6968650526,-2,6,0,5,-4,-2,-3,-10
6968650526,7,5,-1,1,-5,-8,21,-5
6968672327,-2,19,0,0,8,4,31,7
6968672327,-1,-1,9,4,-1,3,7,1
6968673019,-5,-4,-4,4,2,3,1,-4
6968673019,-5,-18,2,-3,-2,-5,-10,-5
6968686683,1,-2,-5,-9,-3,-5,15,-3
6968686683,-4,0,1,2,-4,-4,-33,-4
6968694858,1,8,-6,3,-2,-7,-3,-1
6968694858,-3,4,-4,-10,-5,18,7,-1
6968709833,3,-6,-1,0,2,-6,-41,-5
6968709833,-6,-5,2,0,-4,0,13,-3
6968710491,5,5,-3,4,1,-1,30,6
6968710491,-12,-7,-6,-4,-4,-7,-9,-2
6968732230,-2,1,2,-3,-3,0,-5,-4
6968732230,9,-5,1,0,-3,-12,-25,0
6968733098,-4,-24,-2,2,3,-3,7,-1
6968733098,-1,-13,-2,-6,-5,-3,2,0
6968746635,1,-1,0,-2,-3,7,-10,-3
6968746635,-5,-18,-8,-1,-2,-3,5,-1
6968754814,9,4,1,2,-4,-2,-10,-5
6968754814,-6,6,-1,-1,-1,-10,19,4
6968769770,6,-5,-6,-5,-4,7,0,2
6968769770,-14,3,0,1,1,9,3,-2
6968770547,7,10,-1,3,0,2,-13,-1
6968770547,-7,-1,-4,-4,-1,-1,-2,-9
6968784148,6,5,-1,-3,-3,-13,-7,0
6968784148,14,6,-1,-3,-3,1,5,-1
6968791614,-15,-5,4,10,5,-5,-3,-3
6968791614,-6,6,-4,-5,-7,-1,-17,-4
6968806686,6,7,-6,-12,-1,-1,3,6
6968806686,-2,1,10,18,-6,3,-8,1
6968814827,-5,3,-10,8,22,4,-5,0
6968814827,5,82,0,-7,-15,-6,-11,-7
6968829839,4,-32,7,11,4,2,-7,2
6968829839,-6,116,21,2,10,9,20,-4
6968830545,12,-105,-4,40,3,3,15,12
6968830545,6,68,-55,-75,-6,2,16,-1
6968844118,-9,-40,19,86,-5,-9,-11,-1
6968844118,-24,-10,-60,-93,-10,-17,-28,-16
6968851687,-13,6,14,21,-10,-9,-14,-4
6968851687,20,-2,13,6,1,5,-5,-2
6968866590,8,42,-10,-11,5,10,22,6
6968866590,-3,-72,8,15,6,4,12,6
6968874788,-5,25,13,-11,-3,-7,-20,-2
6968874788,13,-20,3,14,0,-1,3,10
6968889197,-4,14,8,-25,-14,-4,-5,-5
6968889197,11,-30,4,33,-6,1,-2,-1
6968897313,-14,35,-5,0,9,-5,6,-4
6968897313,-4,-15,16,25,1,5,-11,-2
6968904122,9,47,2,-12,16,12,6,7
6968904122,5,17,3,-3,-27,-18,-10,0
6968911632,21,36,-15,-22,-12,-2,4,-4
6968911632,-22,6,-7,-26,-8,-5,-19,-10
6968926633,-18,-34,-20,-5,36,-13,-3,0
6968926633,5,-23,-4,12,-9,19,16,1
6968934820,-9,-14,8,-6,-8,1,-9,-2
6968934820,-7,-77,4,18,26,6,7,4
6968949141,-3,-10,9,-27,-13,6,-17,-9
6968949141,18,-2,8,11,20,-2,27,7
6968957367,8,16,-15,-8,-5,-7,-4,3
6968957367,-18,-19,8,31,4,4,-15,-14
6968964147,-9,-4,0,-11,-26,-29,-23,-12
6968964147,-6,-19,12,6,2,14,-4,3
6968971635,-7,-14,-22,-35,-15,-3,2,-5
6968971635,12,-12,0,-24,-6,-5,-8,7
6968986548,3,4,-3,28,1,6,16,1
6968986548,4,18,-1,-2,1,-12,-13,-4
6968994911,-24,-13,-7,-17,7,0,2,-5
6968994911,-6,-5,5,19,-5,-2,4,1
6969009160,2,-15,3,8,2,5,2,1
6969009160,15,14,6,17,-1,-1,-2,4
6969017414,-1,8,-8,-39,-9,-1,-4,-5
6969017414,-6,-12,4,21,6,-3,1,2
6969024125,34,28,5,-26,-9,12,2,9
6969024125,-42,-24,-11,16,0,-8,-2,-2
6969031661,9,-17,-4,-1,-2,-4,-16,-6
6969031661,-14,-9,-4,-5,-2,-8,15,-4
6969046687,1,0,-25,-16,-3,0,-9,4
6969046687,-8,5,10,5,5,-8,2,-5
6969055485,21,17,12,9,3,8,7,7
6969055485,-33,-3,-1,-8,2,13,9,-4
6969069079,-8,-2,5,12,-1,-1,9,-3
6969069079,-16,-18,-7,-17,-2,-2,-5,-5
6969078038,-11,-4,3,5,-1,-9,0,-1
6969078038,32,9,2,4,-1,1,4,3
6969091633,-11,-17,-1,-7,-5,-4,-18,-8
6969091633,8,-4,-3,-8,3,-9,3,8
6969100539,4,-7,5,4,2,16,3,-2
6969100539,9,-4,3,4,-2,-2,-27,8
6969106667,-14,-5,-1,-4,-1,-5,0,-2
6969106667,13,-6,-7,-9,-2,1,5,2
6969115533,-16,0,3,14,0,-3,-6,-3
6969115533,-5,-2,-5,-5,-5,-3,-6,-2
6969129126,4,4,-7,-10,-2,1,3,-6
6969129126,16,18,5,7,5,-3,-4,6
6969138025,-10,-6,-1,-2,-8,7,-9,-5
6969138025,-19,4,7,-1,-5,-8,4,-3
6969151633,5,-5,-4,13,11,-8,-4,1
6969151633,-4,0,1,-11,-3,14,1,-5
6969160512,14,2,10,22,12,7,7,5
6969160512,16,24,-6,-7,4,5,6,2
6969166588,-4,5,5,0,-8,0,-1,-2
6969166588,-21,-49,-16,-17,-7,-12,-10,-8
6969175551,2,50,7,-10,-13,-13,-15,0
6969175551,12,-20,-11,-3,5,2,0,2
6969189133,-20,-1,-3,-2,-3,-5,4,-4
6969189133,-8,-1,-3,2,0,2,-3,-5
6969198025,6,-1,3,4,1,-2,8,-3
6969198025,1,21,15,9,0,0,4,4
6969211585,7,-14,4,12,-2,2,1,1
6969211585,-4,8,-2,-13,-1,-8,-11,-4
6969220497,-21,-11,-11,-14,2,2,8,1
6969220497,17,-7,-5,0,-2,3,6,-2
6969226636,6,6,-4,-2,1,2,-2,-2
6969226636,-8,8,15,15,-4,-2,-1,-1
6969235521,-1,7,2,1,0,-4,-13,-8
6969235521,-6,5,3,-14,0,1,1,9
6969249146,-7,-11,-16,10,5,2,1,-7
6969249146,14,27,-1,-7,-9,-6,5,3
6969257987,6,12,-7,-4,-2,0,1,-1
6969257987,-36,-12,12,17,-5,-3,8,-8
6969271606,8,10,-11,-24,3,1,6,4
6969271606,8,6,-5,21,14,10,-4,-2
6969280516,-12,-18,-1,14,-6,-6,-2,2
6969280516,6,-13,7,-6,-8,-1,-1,-2
6969286606,-19,0,-8,-11,5,-5,-4,-4
6969286606,13,-29,-6,-8,5,11,-2,-1
6969295500,3,-8,6,-3,1,-2,8,8
6969295500,2,-6,-6,9,-6,-11,-16,-8
6969309163,-9,-12,5,-5,-6,-4,9,-2
6969309163,18,13,4,-13,-3,-2,-3,7
6969318005,-5,-20,-4,-3,-10,6,-1,-9
6969318005,-9,-4,-12,9,17,-2,0,3
6969340464,3,-2,10,16,-1,-4,-6,-2
6969340464,-1,28,-11,-6,-13,6,8,-1
6969342017,-2,-3,-11,-3,9,-10,-1,0
6969342017,18,-3,-13,36,-12,5,2,7
6969346579,3,-15,-23,-77,-10,5,-1,-3
6969346579,6,35,1,38,26,4,8,2
6969355491,-20,-13,13,11,-5,-1,-4,-5
6969355491,24,19,-17,-17,4,-5,-3,-6
6969369118,-18,17,27,49,-17,-7,-5,-3
6969369118,-19,-21,0,-14,-7,-11,-8,-9
6969378024,42,28,-35,-46,-8,-2,6,13
6969378024,-28,-19,14,-1,-3,0,-6,-6
6969391653,12,2,9,8,3,2,-17,4
6969391653,2,6,-6,-4,-1,-2,14,-1
6969400541,2,1,9,27,14,6,-1,1
6969400541,3,-15,-9,-15,1,6,17,6
6969406630,1,4,13,4,0,-2,-9,-1
6969406630,-7,-8,-4,-4,-1,-3,-3,-5
6969415450,7,3,3,2,-4,-6,1,4
6969415450,-4,11,13,-5,-10,-9,1,-11
6969429118,-8,11,-13,2,12,4,4,-4
6969429118,11,2,10,2,-4,-1,-6,12
6969438021,6,5,0,2,8,8,13,2
6969438021,2,6,6,-4,3,-1,-9,2
6969451507,-1,-7,-7,-2,-5,-9,1,-3
6969451507,0,-14,8,-7,-2,-7,-8,-1
6969460512,-14,-37,0,0,-1,12,3,-7
6969460512,7,-6,-9,-7,0,-1,-15,4
6969466645,-14,-12,0,-9,-7,-4,-4,1
6969466645,-10,-23,-3,-1,-1,-3,-12,-6
6969475546,-10,-2,-4,-11,-6,6,3,-6
6969475546,8,4,-5,-3,-1,-2,-6,-3
6969489116,9,-15,-7,-2,-3,-7,9,1
6969489116,-9,-22,-2,-5,-4,-2,-8,-5
6969498010,-5,-10,6,4,0,-7,-2,-3
6969498010,-18,-24,-1,-4,0,9,5,1
6969512337,-8,-3,-4,-1,0,3,-7,-5
6969512337,15,-1,-5,3,0,2,14,8
6969519177,12,9,0,-3,-3,-8,4,-5
6969519177,-18,12,-1,-4,0,4,-3,3
6969526534,-14,12,5,4,5,-4,12,1
6969526534,0,14,1,-2,-4,-2,-7,-1
6969535503,4,6,0,-1,-2,3,1,2
6969535503,-9,5,0,-2,-3,-12,8,-5
6969549037,5,8,-3,4,0,-10,-10,-4
6969549037,16,0,1,-3,0,11,-4,3
6969558013,5,15,-1,-11,-9,-8,-14,2
6969558013,-20,29,-18,0,5,-4,2,-6
6969572336,10,-71,14,14,4,9,0,6
6969572336,9,8,21,24,-5,-12,-5,-5
6969579078,-30,-29,-17,-22,16,6,8,-5
6969579078,15,8,-11,-19,-1,10,-5,-1
6969586612,-17,-8,13,23,-6,2,13,13
6969586612,21,56,3,-14,6,-4,-2,1
6969595496,-28,8,-23,35,-14,-11,-12,-5
6969595496,-6,-51,-15,-42,22,9,4,-8
6969609058,29,16,18,3,-8,1,-1,5
6969609058,-47,-45,-29,-22,-16,-19,-3,-16
6969617968,6,41,104,29,-19,29,-20,5
6969617968,-21,42,-97,-32,-13,-36,-5,-9
6969632961,9,-1,-4,9,-3,-37,11,2
6969632961,-8,-19,-8,-9,10,-13,-22,2
6969634466,4,8,7,55,-7,79,6,-10
6969634466,22,-13,33,-2,-3,14,16,5
6969646587,-13,23,-13,-48,7,2,5,-1
6969646587,-12,32,1,26,-6,-13,-1,2
6969655492,14,-24,-22,-39,6,-40,-13,1
6969655492,10,21,46,27,-10,2,-1,7
6969669119,-4,10,-20,-3,-2,18,-23,-12
6969669119,2,-27,-2,-40,-12,0,4,-3
6969677943,-1,1,-12,22,9,-16,1,-2
6969677943,-4,-30,9,-11,8,-1,-16,-3
6969693005,10,-5,-3,-12,7,-12,16,-1
6969693005,-10,-27,2,25,18,38,11,-6
6969694484,9,-20,-5,-25,-17,-26,-6,11
6969694484,5,15,19,56,4,1,0,-1
6969706604,-20,-29,6,-15,38,26,7,-6
6969706604,5,12,6,-5,6,4,6,4
6969715502,-11,-5,-16,-9,1,-6,7,-5
6969715502,13,-11,3,5,-21,-11,-10,-1
6969729071,12,17,4,13,-15,7,1,-1
6969729071,-27,-35,-7,-11,-9,-12,-11,-11
6969737973,9,2,-8,-15,7,-16,3,-3
6969737973,1,-10,0,10,-5,2,3,2
6969752953,2,5,-15,-14,-12,-2,-12,-4
6969752953,2,26,-6,3,-1,-23,6,2
6969754477,-4,-7,-2,11,5,19,1,0
6969754477,9,33,8,-1,5,3,3,1
6969775413,-7,8,-13,9,-3,-4,-7,-2
6969775413,8,10,0,6,6,1,5,1
6969776939,6,5,4,2,0,-6,-1,5
6969776939,-2,-23,-20,-34,-5,-3,-3,-1
6969789109,0,3,3,3,-9,-11,-11,-4
6969789109,5,-10,9,6,-3,18,6,2
6969797993,-5,-4,0,-2,9,-5,4,-2
6969797993,-3,-1,18,17,5,12,10,0
6969813003,-5,-11,-1,-2,0,0,5,2
6969813003,9,4,-5,-4,-3,6,4,3
6969814481,1,3,5,-4,-8,-21,-12,-7
6969814481,0,-8,1,-4,-6,-19,-3,4
6969826589,-6,-2,-3,-2,-6,16,-1,-6
6969826589,-2,7,1,5,0,6,6,1
6969835472,10,3,-7,-10,2,-9,7,2
6969835472,-25,-23,-4,-2,-3,-2,-6,-3
6969849041,2,5,1,0,-4,-4,-1,-5
6969849041,5,2,-5,-10,-6,-4,7,2
6969857971,-19,-8,-3,-1,1,-3,0,0
6969857971,12,7,-3,2,-1,4,2,-1
6969872284,8,5,0,0,-4,-5,-4,0
6969872284,20,-6,-9,-4,0,0,-4,-2
6969879130,-18,5,-3,-10,-2,-4,-9,-5
6969879130,-1,-1,7,4,-1,2,-3,-1
6969886670,-10,-5,-11,-4,1,1,-2,-1
6969886670,-11,-3,-2,-2,-4,-4,-5,-4
6969895485,14,2,0,6,0,3,-4,-1
6969895485,-3,-3,-1,-6,-2,-3,-6,-2
6969909159,-8,3,7,5,-1,-3,-6,1
6969909159,3,2,6,6,-4,-1,1,1
6969917966,-3,-10,-13,-13,-2,-4,-1,-4
6969917966,-1,-8,3,8,-1,2,2,0
6969932281,11,28,-1,-1,1,0,-1,0
6969932281,-27,-18,-2,-2,-6,-5,-4,-4
6969939062,4,-5,3,-1,1,2,-5,-2
6969939062,13,10,-5,-4,2,-2,-1,0
6969946618,-22,-7,2,-1,0,4,1,-1
6969946618,6,11,3,-4,1,2,-5,2
6969955470,-4,11,0,5,-3,-8,2,0
6969955470,3,-20,3,15,-4,-3,-5,-4
6969969114,11,2,-4,-11,2,2,1,0
6969969114,-14,-4,-5,-6,0,-1,0,-1
6969977972,20,6,-5,-5,-4,-1,-4,-2
6969977972,-4,20,0,-12,0,0,0,1
6969992334,17,12,3,12,-3,-4,-1,1
6969992334,-21,-8,7,6,-4,-4,-4,-8
6969999135,-10,-7,-1,18,-3,-1,-1,-1
6969999135,5,11,-4,-23,1,0,-6,-3
6970015324,-3,-15,-8,-11,-3,-1,3,6
6970015324,6,9,1,8,5,2,-6,1
6970016937,-2,0,-6,-14,-8,-2,0,1
6970016937,8,17,5,14,8,7,4,-1
6970028932,5,-12,9,5,3,0,16,4
6970028932,-13,-42,-2,1,-4,-2,-23,-7
6970037970,4,5,-10,-18,-1,0,4,0
6970037970,-30,-17,4,4,-13,-9,-5,-4
6970052162,17,-7,-8,-19,1,-4,0,2
6970052162,-18,-13,-2,14,3,5,-6,-2
6970058913,9,-13,4,-8,-1,2,0,1
6970058913,4,-11,-3,2,3,1,-5,-1
6970075318,-7,6,1,4,-6,-4,-8,-2
6970075318,8,11,1,5,6,1,11,-2
6970076920,-6,-12,-2,2,1,-7,-5,-1
6970076920,-6,-4,-7,-15,-17,-11,-6,-2
6970088978,-10,-7,9,28,9,6,0,-3
6970088978,22,9,-4,-13,-4,-4,-3,-1
6970097927,-14,-7,11,7,7,3,4,-2
6970097927,0,-6,3,9,-9,0,7,-1
6970112098,6,11,-21,-26,6,-4,-5,-4
6970112098,-11,-13,-5,-7,9,4,5,-2
6970118959,2,3,-2,-3,-10,2,1,-1
6970118959,2,-4,-1,4,6,4,2,2
6970136792,8,13,10,21,-14,-6,-6,-4
6970136792,8,13,4,-13,4,-3,3,3
6970139765,-17,-2,5,47,0,1,1,-3
6970139765,-3,-2,-15,-20,16,0,-3,-3
6970149148,-2,-15,-21,-18,-5,5,0,-1
6970149148,10,12,-8,-12,-9,-6,3,1
6970159888,-3,-4,7,-3,-7,1,-3,-1
6970159888,4,1,9,16,2,-1,-3,-1
6970172127,-7,-9,10,7,2,4,2,-2
6970172127,4,5,1,-3,-13,-6,-9,-3
6970178914,3,-8,5,-15,-4,-8,2,3
6970178914,-2,24,5,12,16,13,13,0
6970195275,-4,-5,6,1,8,5,-1,-1
6970195275,-2,2,0,-1,-9,-1,5,1
6970196907,9,9,-24,-24,-7,-12,-16,-1
6970196907,-9,-17,-13,-5,2,-8,-1,-3
6970208986,1,4,-7,-1,-6,12,10,2
6970208986,-1,-16,-6,-3,-4,-11,16,-6
6970217909,-4,-11,-6,-8,-1,7,-39,-2
6970217909,4,-11,5,0,-2,2,33,6
6970232203,-4,12,5,1,-1,-5,-4,0
6970232203,-8,8,-3,5,1,1,3,-6
6970238950,10,11,1,-6,5,6,12,-1
6970238950,4,3,-3,-6,-8,-9,-20,3
6970255304,6,-16,-3,-10,-8,-16,8,-8
6970255304,-23,-16,3,5,-3,7,-38,6
6970256933,1,-12,0,-1,5,-5,12,-3
6970256933,-9,-18,-6,-5,-3,2,-2,-3
6970268935,3,-17,0,3,1,2,-13,-2
6970268935,9,3,1,-1,-3,-7,-4,-3
6970277975,-7,-1,-3,-4,2,-7,-2,-1
6970277975,15,1,-4,0,-5,1,6,-6
6970292119,-5,10,9,3,-6,-10,8,4
6970292119,-20,13,-7,-2,-2,5,-8,-6
6970299046,-6,20,-1,2,3,2,8,2
6970299046,2,8,1,-8,-7,-11,1,-2
6970315333,28,16,-6,4,1,4,-1,7
6970315333,-18,12,13,11,0,-16,-1,0
6970316988,3,-25,-21,-33,-6,7,11,-3
6970316988,-4,-14,-4,12,1,-1,-16,-1
6970329107,-34,8,9,21,6,5,-14,-10
6970329107,21,6,12,5,-6,1,12,8
6970337986,16,2,-8,-2,4,-2,6,-1
6970337986,16,24,-7,-13,-4,-3,-21,3
6970352259,-26,-19,8,20,-6,-5,-8,-4
6970352259,12,-15,8,-12,5,3,8,0
6970359098,5,28,-14,-27,-6,-7,-5,-4
6970359098,8,-12,13,6,1,-4,7,12
6970375474,-8,17,-2,9,-3,4,-2,-9
6970375474,-24,9,-1,14,4,5,-12,-2
6970377115,15,-85,25,16,7,9,-6,5
6970377115,-21,36,-47,-27,4,-7,12,-5
6970389057,36,20,12,19,-2,-6,-7,2
6970389057,-38,-43,9,-18,-7,-7,-37,-12
6970397997,23,41,-1,8,10,16,34,10
6970397997,-22,25,9,-1,-15,-13,-16,-10
6970412313,-1,-50,-19,-38,-9,1,4,-6
6970412313,17,10,-2,44,2,9,17,3
6970419048,-37,7,-25,-26,10,-3,0,3
6970419048,9,7,19,18,-20,-2,-10,-11
6970435433,-16,61,-6,-53,9,6,19,2
6970435433,21,-1,-41,-19,-11,-8,14,10
6970437141,-6,4,8,15,-1,-6,-33,-12
6970437141,-7,-22,4,22,13,13,8,8
6970449526,14,23,19,14,-9,2,-9,-3
6970449526,12,43,12,-25,2,-3,7,4
6970457973,-24,-4,-1,14,-12,-11,-4,-7
6970457973,1,-27,4,-3,-12,-7,-27,1
6970480371,0,-1,17,44,3,-10,-1,2
6970480371,15,4,-13,-22,18,23,22,2
6970481943,-5,-13,-12,-22,0,-6,0,2
6970481943,5,-19,-1,-5,11,8,-1,-4
6970495453,-33,-27,-6,17,4,1,-7,-1
6970495453,6,-32,-8,9,-13,-23,-7,-5
6970496950,6,-6,25,20,-4,22,9,3
6970496950,9,16,-3,12,17,0,0,2
6970509105,-7,-42,-3,-13,7,-13,20,-1
6970509105,3,-12,-8,-10,-11,-9,-15,7
6970517943,-10,8,6,6,-10,18,-6,-9
6970517943,22,14,2,-9,-7,5,8,6
6970533609,1,-10,-10,-12,-4,-12,-6,-11
6970533609,3,7,-2,-1,-2,4,22,2
6970539207,-6,-7,16,8,4,-6,9,4
6970539207,-10,0,-3,-5,-3,-2,-7,-6
6970554748,-2,-3,-11,-15,-1,6,9,-1
6970554748,-9,11,11,4,-1,-7,-7,-8
6970561507,6,10,-4,2,-3,-10,-7,-1
6970561507,-9,-16,-1,-5,1,6,9,-5
6970569095,9,9,-5,-11,-2,-5,-4,6
6970569095,-17,-18,-1,-1,2,12,-29,-9
6970578023,-1,-11,-1,9,2,-12,4,4
6970578023,3,-5,-4,-15,-12,0,-14,-2
6970592186,-3,5,3,1,1,-4,3,2
6970592186,11,-1,1,1,1,19,3,1
6970599066,-9,-3,-5,2,2,-12,-7,-7
6970599066,-3,3,6,1,0,8,17,0
6970615293,-1,-8,-10,-5,0,2,-1,1
6970615293,7,13,2,8,2,-3,-1,-2
6970616920,10,-1,-3,-7,-7,-7,-4,2
6970616920,-26,-11,-6,0,1,-5,14,-7
6970629068,8,1,-2,-9,-5,3,-9,11
6970629068,-13,-13,0,-1,0,-4,0,-5
6970638060,4,3,4,4,0,2,-1,-1
6970638060,-3,-8,6,3,-1,-3,0,-1
6970652249,-5,-10,-5,-5,-4,1,-6,-6
6970652249,3,0,1,3,2,-6,-1,-1
6970659003,-1,6,2,-4,-5,-2,-2,-1
6970659003,3,-4,-5,-2,6,2,-6,0
6970675411,5,3,2,5,-1,-6,-11,-1
6970675411,3,-8,-5,-1,0,3,5,0
6970676955,11,7,-1,6,-3,1,1,1
6970676955,-29,-2,-7,-15,-7,-4,-6,-9
6970689053,12,9,4,3,5,2,6,3
6970689053,-15,-2,-9,-2,1,-16,-2,-3
6970698033,1,4,-1,-3,-5,16,3,-2
6970698033,8,4,10,6,-4,-5,-4,3
6970712219,1,-7,-5,-7,-2,1,-5,-5
6970712219,9,8,4,6,-2,1,-1,-1
6970719078,-1,-4,-11,-9,4,-6,2,4
6970719078,-13,-8,-3,-4,0,-2,-3,-4
6970735387,-2,-4,-1,2,-1,5,0,-2
6970735387,5,3,8,5,0,-9,3,2
6970736887,0,12,-6,-18,-5,4,-6,-4
6970736887,-1,-7,-4,5,-7,-2,-4,2
6970749045,13,-1,-3,2,-1,2,4,1
6970749045,5,10,-3,-13,0,0,1,1
6970758063,-16,-6,4,6,1,-4,-5,-4
6970758063,-4,-3,3,13,5,0,0,-1
6970772285,-7,7,-3,-7,-8,-3,-5,-7
6970772285,16,6,4,13,-1,1,-1,0
6970779053,4,-6,-12,-5,4,0,2,-3
6970779053,-1,1,2,-4,0,1,0,1
6970794705,-27,-9,0,6,-1,-5,-6,-2
6970794705,-3,0,-14,-11,-2,-1,-1,-3
6970801594,-3,-1,4,1,-4,-4,-1,-2
6970801594,8,5,0,-2,-3,-5,-4,-2
6970809059,8,2,-2,-4,-6,-1,-1,4
6970809059,2,0,2,-1,5,10,6,3
6970817989,-24,-2,-2,1,-3,-6,-4,-9
6970817989,22,7,-1,-5,-2,0,2,0
6970832260,5,8,0,-6,-6,-4,-19,0
6970832260,-7,11,4,27,0,-10,-4,-3
6970839089,-23,-15,12,13,-4,0,8,0
6970839089,0,3,-18,-29,5,7,7,3
6970854699,-7,-5,-5,-10,7,3,1,-2
6970854699,-6,4,-2,5,2,3,-7,-3
6970861462,19,6,4,8,1,-8,-4,1
6970861462,-13,-13,11,8,-11,-6,-1,-4
6970869073,-18,-13,-10,-10,-2,-2,5,-1
6970869073,-5,-18,-2,-4,2,4,3,0
6970877954,2,-9,0,4,6,-1,1,-2
6970877954,12,-6,-3,-1,-1,1,-7,5
6970892271,8,-5,-3,-6,-7,-9,-4,-5
6970892271,-7,-5,5,6,4,5,2,-2
6970899064,-2,-5,-5,-12,-5,-5,-2,0
6970899064,6,6,-7,-8,1,-2,1,0
6970914690,-10,-7,-8,-5,-10,-8,-5,-6
6970914690,-7,-6,3,9,8,2,-3,-5
6970921578,26,4,5,3,5,7,3,2
6970921578,6,2,0,-3,-4,0,2,6
6970928945,-10,-2,8,16,15,10,9,1
6970928945,-4,-3,-1,-9,-15,-9,-2,-1
6970938037,-8,3,-3,0,-3,-4,-5,-2
6970938037,3,3,4,3,-6,-5,-5,-2
6970952260,12,10,2,-2,3,-6,-3,2
6970952260,-2,4,-2,0,7,18,2,0
6970959079,-15,-8,-10,-16,-4,0,3,-3
6970959079,6,2,0,0,-9,-6,0,-2
6970974760,7,8,-3,0,-7,-11,-7,-3
6970974760,-13,-9,-10,-18,-10,-12,-2,-1
6970981557,2,10,-2,0,0,2,-1,-1
6970981557,-3,-6,-1,7,6,-6,-9,1
6970997890,1,-4,1,2,4,9,12,0
6970997890,1,-2,-2,1,2,1,2,-2
6970999442,-23,-3,-1,-8,-5,-3,-6,-3
6970999442,3,1,1,-1,-4,-1,2,-1
6971012288,-4,-1,-1,-4,0,-1,-4,-3
6971012288,4,-8,0,3,2,2,1,3
6971019118,9,2,-3,2,-3,-5,-4,-3
6971019118,-10,4,1,0,-2,-6,-2,-5
6971034794,-4,-8,0,0,-2,5,-2,1
6971034794,7,4,3,-11,-1,1,1,-4
6971041589,-1,-1,-1,2,3,0,0,3
6971041589,-9,-8,0,4,3,3,0,-1
6971057861,7,0,0,-6,-7,-4,-9,-1
6971057861,-6,-11,-11,-2,-5,-5,6,-3
6971059438,10,8,1,4,3,2,-1,2
6971059438,-6,-7,-1,1,3,2,-6,-3
6971072261,-13,-7,-2,1,-3,-5,11,-2
6971072261,6,7,-2,-9,-5,1,-3,-2
