timestamp,emg1,emg2,emg3,emg4,emg5,emg6,emg7,emg8
6129636829,4,-88,1,-1,5,5,2,2
6129636829,0,-60,9,4,4,2,1,0
6129637556,0,91,11,0,0,-2,-2,0
6129637556,8,-41,-65,-12,-6,-5,-3,-1
6129638479,-9,-59,1,-3,-2,-3,-2,-4
6129638479,-5,84,4,12,1,0,1,0
6129639121,-3,-14,-28,-7,-3,-1,-3,-4
6129639121,-8,-48,11,-3,-4,-2,-2,-3
6129649253,5,60,1,-3,-4,-1,0,3
6129649253,4,43,-8,-1,3,2,0,0
6129658046,-3,-58,18,1,-4,-2,-2,-2
6129658046,-2,-12,-1,-4,1,-1,1,-1
6129665718,-2,65,-7,5,3,2,2,0
6129665718,0,-58,6,-2,-3,-6,-4,0
6129679264,-5,-49,-4,-12,-6,-2,-2,-3
6129679264,0,55,34,14,-3,0,-1,-3
6129690845,2,-2,11,5,0,-3,1,3
6129690845,-7,-43,-3,-7,0,5,-6,-4
6129694264,6,19,-15,-2,0,0,3,0
6129694264,-7,29,0,-2,1,2,0,-1
6129709501,-1,-29,-7,-5,-3,-4,-2,-2
6129709501,5,-16,14,2,1,-3,1,2
6129718079,0,16,-7,-6,-6,-6,-1,1
6129718079,-3,-26,-9,3,7,10,-1,0
6129757475,2,-88,41,10,3,-2,-1,-2
6129757475,2,97,5,-3,-2,-3,-3,-1
6129758362,5,-8,9,0,-2,-4,-1,-1
6129758362,4,-50,-57,-3,-2,-2,-5,1
6129759175,1,55,-8,-1,-3,-1,0,2
6129759175,-6,38,5,0,2,5,1,-4
6129762365,-4,-28,-8,-1,-1,-2,-4,-4
6129762365,-1,-37,21,0,-1,1,4,1
6129769210,7,30,-10,-3,-3,-2,-6,2
6129769210,-7,-52,-8,-4,-3,-2,5,0
6129776679,-3,62,14,1,2,-2,5,4
6129776679,-5,75,-14,1,2,8,-1,-4
6129785501,10,48,44,7,0,-6,2,-3
6129785501,-3,-42,-68,-7,-3,4,-17,-6
6129799199,-11,-57,19,-4,0,-2,16,2
6129799199,-2,-31,13,-3,-4,-11,5,0
6129808019,1,-36,-35,-5,-2,10,-14,-1
6129808019,6,-52,41,6,2,-7,2,1
6129814195,1,12,-2,-2,2,2,-10,-4
6129814195,-3,40,-6,2,5,5,1,-3
6129829142,-8,4,-4,-8,-4,-6,3,-3
6129829142,-4,-33,-4,-7,-16,-16,-4,-3
6129836524,-4,-3,-13,3,0,3,-4,-3
6129836524,1,16,32,12,8,1,5,4
6129845548,-11,-29,-27,-3,2,4,12,-1
6129845548,3,-22,20,-2,-1,8,-9,-1
6129859117,0,-2,-29,-9,-8,-8,1,-4
6129859117,-3,-21,-12,-5,-8,-7,-10,-4
6129868042,0,-33,7,0,1,-3,-5,-2
6129868042,0,15,-1,3,4,0,9,2
6129883674,3,1,9,1,3,-4,-5,0
6129883674,-2,-29,3,-3,-2,11,-3,-2
6129889245,-8,-1,-72,-10,-6,-7,-3,-2
6129889245,1,26,13,1,2,1,1,2
6129896558,4,3,-1,0,-3,-1,-5,-2
6129896558,5,-10,-6,-1,-4,-8,-2,2
6129905577,-9,15,13,-5,0,3,0,-4
6129905577,1,13,4,1,0,-1,-2,-4
6129919150,2,-4,0,3,5,6,9,5
6129919150,7,13,-16,-9,-5,-10,4,-1
6129928064,-3,10,15,-2,-6,0,-11,-2
6129928064,1,-16,16,2,2,0,0,0
6129934066,-8,-10,6,-2,-1,1,-6,-5
6129934066,3,2,3,1,0,5,6,2
6129949116,5,-3,15,11,12,-5,16,6
6129949116,-13,-29,-32,-4,0,3,5,-2
6129956659,4,6,-26,0,-4,-1,-2,2
6129956659,-3,4,77,-3,-7,-3,4,-4
6129965562,-2,-12,1,0,-4,0,-13,-7
6129965562,6,6,-10,-3,-2,-7,-6,2
6129979135,2,5,-19,-3,-2,-3,-4,-2
6129979135,-8,-2,11,-3,2,1,-4,1
6129988031,5,-4,16,-3,-5,-2,-3,-1
6129988031,2,19,3,5,4,2,2,-1
6129994027,-2,-12,13,2,-5,-1,-6,-4
6129994027,5,-15,-24,-3,-5,-5,-5,-2
6130009008,-8,-7,8,2,6,8,-3,2
6130009008,-4,-7,-22,-3,1,0,13,0
6130016489,-4,-12,4,-9,-4,0,1,-2
6130016489,-3,7,-15,-3,-5,1,-8,-2
6130025522,8,22,17,2,0,-1,5,3
6130025522,4,8,25,10,4,0,-1,1
6130038994,-2,-6,-11,-11,-5,-3,4,-8
6130038994,-1,11,-3,-1,8,1,-9,8
6130048049,1,0,3,-2,-5,-4,3,-4
6130048049,-5,11,29,3,1,-3,1,2
6130053982,-2,0,-13,3,-1,-2,-12,-3
6130053982,6,3,-14,1,-2,1,-3,-3
6130068997,-4,-7,-18,-9,-6,-4,2,-2
6130068997,5,7,30,4,2,2,3,-1
6130076496,0,8,-34,2,-2,-3,-5,1
6130076496,-2,-11,-14,4,6,3,13,-1
6130085453,2,7,20,8,4,5,-11,1
6130085453,-11,-30,-51,-20,-13,-7,-9,-4
6130099723,-4,-28,-14,-6,-1,-6,-2,-2
6130099723,-1,-5,10,3,0,-1,-5,-2
6130106523,-2,-4,4,-11,-6,-6,5,-2
6130106523,7,3,21,4,-1,3,1,0
6130122219,-1,0,-3,-7,-1,5,-9,2
6130122219,-3,-16,-24,6,2,0,4,-5
6130129004,-5,-5,-9,0,-3,-6,-8,-5
6130129004,-9,-14,-1,-11,0,-1,-1,0
6130136508,6,-3,4,5,2,2,5,1
6130136508,-2,15,4,-6,2,-4,-14,0
6130145512,-14,-17,-2,-1,-3,0,15,-1
6130145512,9,-7,-9,0,-3,-3,-11,0
6130159727,-1,14,31,0,0,4,7,2
6130159727,13,16,26,1,-7,-4,-14,-6
6130166527,-2,0,-23,-6,6,-1,1,-1
6130166527,-6,7,-2,0,-2,-4,-8,2
6130182230,-1,11,15,8,5,1,-1,-2
6130182230,-10,5,19,3,-3,1,2,-4
6130188966,-3,-24,-46,-8,-3,-7,-8,-1
6130188966,-1,7,-13,-8,-6,-7,0,-4
6130196473,7,20,17,6,5,5,6,7
6130196473,-12,-32,2,-3,3,1,4,-2
6130205548,15,13,26,6,-4,3,4,0
6130205548,6,45,15,3,0,-2,-5,0
6130219735,-5,-34,-60,-30,-20,-13,-8,-5
6130219735,-20,15,14,15,4,-3,0,-7
6130226480,9,-12,0,-7,9,5,-7,2
6130226480,7,-11,-1,3,1,5,6,1
6130242163,-13,-21,38,8,3,4,3,5
6130242163,6,7,-13,-4,-4,-4,5,1
6130248972,-25,5,-13,-3,-7,-9,-8,-4
6130248972,2,-21,-13,5,2,-1,6,-8
6130256479,11,39,22,4,1,3,10,8
6130256479,-8,-51,-32,-15,-6,-4,-17,-4
6130265502,2,27,2,6,0,3,9,0
6130265502,-12,-14,2,-5,0,-1,11,-2
6130279685,4,-23,13,0,-6,-6,-14,-4
6130279685,-1,19,4,-9,-6,-1,12,-2
6130286501,5,7,12,13,13,2,1,-1
6130286501,-6,8,-1,4,2,2,-4,-3
6130302289,1,-24,-16,-10,-3,-3,-5,1
6130302289,7,27,0,4,4,2,3,3
6130309005,7,-15,31,-1,-7,-7,-6,-1
6130309005,-3,-3,-4,-8,-5,2,-1,-2
6130316519,3,27,6,7,3,0,1,1
6130316519,7,-8,12,-6,4,3,9,6
6130325507,-15,12,-1,7,1,-1,-4,-4
6130325507,-8,-33,10,6,-2,-2,-12,-2
6130339798,10,8,12,-4,-2,0,5,-1
6130339798,7,8,-9,6,-2,-3,-6,1
6130346533,-1,-7,15,9,-4,-1,2,0
6130346533,1,25,28,1,-2,0,0,-2
6130362263,3,-17,-3,1,0,-3,-1,-3
6130362263,-6,-9,37,-4,-3,-4,-2,-4
6130369054,7,-17,-39,-13,-9,2,1,5
6130369054,-7,12,0,4,9,3,2,3
6130376611,-3,6,-3,11,2,-1,1,-2
6130376611,-4,-4,-4,-4,-7,-8,-12,-3
6130385504,-2,-3,7,-11,-8,-2,6,-3
6130385504,6,1,-37,-12,-5,-2,-4,4
6130399687,7,13,-11,-2,6,0,-2,-5
6130399687,-11,-41,-17,-2,-5,-2,-1,-3
6130406609,-16,-15,5,12,1,-2,-6,-1
6130406609,8,-4,-14,-13,-3,-3,1,-1
6130422304,-6,19,8,2,2,-1,-3,-3
6130422304,4,16,-1,0,-3,0,3,0
6130429204,15,10,-19,-8,2,2,1,4
6130429204,-13,-25,-22,4,0,-2,-3,-3
6130436565,-17,13,12,-5,-7,-5,-3,-8
6130436565,8,29,56,5,2,3,-4,4
6130451628,-3,-26,-59,-22,-12,-8,-4,1
6130451628,9,23,51,16,6,2,0,-1
6130459755,-6,-23,-21,3,10,6,3,-1
6130459755,-6,-3,1,1,-1,1,-2,-2
6130466531,4,8,-6,3,4,2,-2,1
6130466531,5,3,-16,-15,-16,-7,-4,-1
6130482336,-3,-25,-47,-5,-11,-9,-7,-6
6130482336,-5,6,-27,6,3,4,7,0
6130489118,-13,-50,-43,-18,16,4,-4,-3
6130489118,-10,-13,-11,2,-1,-2,-2,-3
6130496514,-9,2,31,-3,-5,-3,-2,-1
6130496514,7,-1,-21,1,-6,-7,-4,-2
6130511589,4,22,0,3,-6,-2,-1,0
6130511589,6,5,9,5,6,3,-1,1
6130519721,1,-2,-13,-4,2,-1,1,1
6130519721,-5,0,-14,-7,-5,-4,-1,-3
6130526636,5,1,33,6,0,0,1,0
6130526636,4,-15,-4,-4,-3,-4,-1,3
6130542364,-4,20,7,9,2,4,2,0
6130542364,-9,-24,-17,0,16,8,-1,0
6130549122,8,17,27,4,3,3,5,-1
6130549122,-2,7,-3,4,-2,0,-1,0
6130556549,6,-15,-3,-9,-6,-2,-2,6
6130556549,1,6,4,6,-1,-3,-2,-3
6130571608,3,14,35,-3,-7,-4,-6,-4
6130571608,-7,-13,-15,-4,-5,-1,2,-1
6130579849,5,7,-9,7,7,1,-1,2
6130579849,-11,3,-23,1,-9,-5,0,-3
6130586638,-2,5,6,-19,-3,0,-3,-2
6130586638,-12,-26,-49,-4,2,-2,-3,-6
6130602211,1,5,5,5,6,6,1,0
6130602211,11,9,13,2,0,0,-1,1
6130609127,-4,-11,-14,6,-1,-2,0,-4
6130609127,-5,7,17,-3,-5,-2,-6,-4
6130616577,10,12,17,1,-3,-2,2,4
6130616577,-1,-55,-62,-16,-15,-5,-4,1
6130631636,-13,22,36,1,-6,-5,-4,-8
6130631636,-3,-4,8,4,13,5,7,1
6130639832,-6,1,35,8,-7,-1,1,-2
6130639832,3,-3,-20,-2,10,1,2,-1
6130646649,5,2,-6,6,0,1,2,1
6130646649,13,11,-4,2,-8,-5,-4,2
6130662157,-11,0,8,-15,-12,-8,-8,-5
6130662157,0,16,0,-11,1,4,1,0
6130669092,-7,-14,-29,-18,0,-4,0,-1
6130669092,-5,9,0,15,9,1,-2,-4
6130676498,11,8,15,8,1,2,1,2
6130676498,-5,-13,-41,-7,-2,-2,-1,-1
6130691588,-3,-7,10,0,-5,-3,-1,1
6130691588,-6,4,31,-5,-6,0,-1,-3
6130699679,0,-9,-20,-2,-2,-1,-3,-4
6130699679,6,29,63,6,5,-3,-1,-1
6130706620,-3,-19,-32,1,3,-1,-2,2
6130706620,3,11,17,3,-6,1,0,2
6130722285,-12,-20,-88,-31,-5,-4,-3,-8
6130722285,-5,-6,5,1,2,-1,0,-1
6130729091,8,19,38,12,5,5,0,2
6130729091,3,-9,-10,-7,2,-2,-1,-1
6130744663,-2,-6,47,12,4,2,0,-2
6130744663,1,0,11,-1,-1,0,1,1
6130751617,0,16,3,8,-2,0,1,-1
6130751617,-5,-9,2,-3,-9,-3,-1,-2
6130767984,2,0,-17,-4,2,1,-3,3
6130767984,-3,-13,-22,-4,2,-3,1,-4
6130769585,9,12,11,6,-3,-2,-2,3
6130769585,5,21,9,-2,4,1,1,-1
6130782337,-21,-26,14,2,3,2,-1,-3
6130782337,9,33,7,7,-7,-1,-1,-1
6130789127,-2,-13,4,2,-1,-1,0,-1
6130789127,-2,1,-16,-6,0,0,-1,1
6130804737,0,-6,0,4,0,-3,0,0
6130804737,-1,9,14,-2,-2,4,0,-2
6130811534,-2,1,-6,4,5,0,-2,-3
6130811534,5,3,-12,-13,-7,-5,-3,0
6130827905,-3,11,12,-1,6,-1,2,-1
6130827905,-3,-20,8,6,-1,-3,-1,-1
6130829446,3,-3,-25,-8,-8,-3,-3,-1
6130829446,9,-33,9,-2,2,-2,-3,-1
6130842218,-14,35,0,4,0,1,2,1
6130842218,6,3,-2,-9,-9,-7,-6,-4
6130849077,-9,11,-6,-1,1,4,4,1
6130849077,-1,-28,4,12,0,2,2,0
6130864799,26,11,9,-13,-4,-2,0,3
6130864799,-31,-27,-15,-6,-4,-4,-5,-3
6130871636,-3,16,18,2,-2,-2,-3,-2
6130871636,0,-10,-12,4,3,3,1,-1
6130887952,8,8,2,2,-3,-4,2,4
6130887952,-3,0,7,-21,-7,-3,-2,-4
6130889442,2,-16,-9,-3,1,3,1,-1
6130889442,-7,36,-10,14,6,0,0,-1
6130902219,-4,0,19,4,0,-3,-1,-5
6130902219,5,9,-26,-2,6,5,2,2
6130909142,-5,-14,-3,0,3,-3,-3,-1
6130909142,1,6,24,-2,-14,-6,-4,0
6130924721,-11,-1,-49,-10,-6,-2,-4,-2
6130924721,4,5,14,0,-3,-1,1,0
6130931647,2,10,-21,-2,-7,-5,-2,-3
6130931647,10,21,-8,-1,6,3,-1,1
6130947890,-9,-23,14,1,-3,-3,-3,-2
6130947890,6,9,5,-11,3,3,0,1
6130949501,-8,5,33,7,-3,1,0,-1
6130949501,1,-12,-10,-9,1,-2,0,-3
6130962135,-5,-11,0,8,3,3,2,-1
6130962135,2,7,8,15,8,1,1,2
6130969060,23,11,50,3,4,1,2,5
6130969060,-25,7,-1,-14,-15,-11,-9,-10
6130984680,-2,4,12,-3,-4,0,-3,-4
6130984680,-13,-24,3,-8,-2,-3,-2,-3
6130991547,7,16,3,-1,-8,-5,-4,-1
6130991547,-1,1,8,6,9,6,3,2
6131007927,10,0,-48,1,2,-1,-1,1
6131007927,7,-4,56,12,-2,0,2,0
6131009536,-14,-2,19,1,1,-3,-3,-6
6131009536,-1,12,-2,-13,-4,0,-1,-2
6131022243,3,-11,-17,1,5,1,0,1
6131022243,-3,-7,-49,12,-2,-2,0,2
6131029103,-10,-32,-33,-7,-4,-3,-2,-4
6131029103,-3,-15,12,-4,-8,-2,-1,-3
6131052919,10,6,7,-2,-4,-3,-3,2
6131052919,-4,5,5,-10,-3,-3,-2,0
6131054432,0,-17,-30,-1,2,6,2,1
6131054432,0,-1,-25,-6,0,-2,0,1
6131068003,0,12,47,7,1,1,1,0
6131068003,-7,-17,-36,-13,-2,-6,-5,-6
6131069466,-5,-2,9,0,0,-1,0,0
6131069466,3,-6,14,1,-1,-4,-2,-3
6131082293,-3,-10,0,-1,-5,-2,-1,0
6131082293,4,14,44,11,5,2,0,-1
6131089150,0,50,-34,-7,1,1,0,0
6131089150,6,0,11,11,5,2,0,2
6131105465,-4,2,-11,-7,1,0,1,-2
6131105465,3,5,17,10,0,-1,1,1
6131111532,-3,-15,-19,-6,1,0,-1,0
6131111532,-2,-2,31,7,-5,-3,0,1
6131127234,6,2,-45,-10,-7,-4,-4,-4
6131127234,-10,1,0,-16,-3,-2,-2,-4
6131127942,-1,-16,-26,-2,4,1,1,2
6131127942,-1,-9,-16,-5,-1,-1,-1,-1
6131142954,-11,1,50,23,6,0,1,-1
6131142954,3,-11,-54,-13,-9,-4,-3,-3
6131149123,0,-12,-28,-1,1,-1,-2,-3
6131149123,-3,0,37,3,-3,1,1,1
