timestamp,emg1,emg2,emg3,emg4,emg5,emg6,emg7,emg8
7037649913,2,4,4,1,-4,-5,-1,3
7037649913,-11,-13,-1,-5,-5,-1,0,-2
7037650636,12,15,2,-4,-5,-8,-6,-2
7037650636,-9,4,3,0,-3,2,6,-1
7037651493,-10,-6,-7,-1,-3,-11,-16,-10
7037651493,-1,-5,-9,-2,-2,1,-1,3
7037655082,-7,-9,2,0,-10,-7,4,1
7037655082,7,-1,3,5,11,3,0,-3
7037661580,-16,9,6,19,12,8,6,-1
7037661580,3,1,-2,17,-1,-4,-3,-3
7037670923,1,-8,-24,-22,3,3,0,3
7037670923,5,-1,6,-3,-6,-3,-3,1
7037684058,-7,9,-2,1,-1,-3,-1,-3
7037684058,-4,-9,2,-1,-7,-8,-26,-6
7037692605,1,0,5,11,3,8,38,6
7037692605,-5,-21,-14,-13,-3,-3,0,-2
7037699010,13,6,8,-1,0,2,4,3
7037699010,1,-3,-1,-8,-4,-15,-9,-6
7037707693,-8,-9,-6,-7,-7,12,-11,-4
7037707693,-11,7,-2,0,2,-17,4,-2
7037722650,-3,-12,-8,-3,0,11,0,-5
7037722650,3,18,1,-5,-2,-2,9,3
7037729788,11,-3,-3,-9,-12,-24,-32,-5
7037729788,3,-2,-4,2,-5,6,3,-1
7037777145,-7,-1,-1,-3,-3,-9,5,-2
7037777145,0,-8,-2,-2,-6,-16,-14,-5
7037778109,5,27,1,-3,-1,4,1,-1
7037778109,-7,-11,2,4,-2,6,2,4
7037778782,13,-8,-7,-7,-2,-3,-2,2
7037778782,-30,4,5,0,-4,2,6,-5
7037781325,-5,-13,-4,-3,3,-10,-8,-3
7037781325,12,-2,-8,-2,1,2,-6,-6
7037789513,-9,-2,-6,6,-3,3,1,0
7037789513,18,8,7,10,3,1,0,-1
7037796286,-1,11,3,-8,-9,-2,-2,0
7037796286,-4,-82,-3,-4,3,-5,-1,-2
7037803794,16,52,-6,-30,-5,-6,-5,-4
7037803794,-1,33,3,17,1,2,5,0
7037818829,-17,-32,-13,-9,-2,-3,-8,-16
7037818829,12,17,9,0,2,-2,5,5
7037826324,-19,-21,15,6,-8,-5,-5,3
7037826324,3,-82,-46,-26,-1,1,-3,-1
7037835260,22,123,27,8,-1,1,4,6
7037835260,-35,-62,-24,-7,-5,-7,-6,-15
7037849501,0,-9,19,22,-1,2,0,-2
7037849501,4,36,7,-19,5,-1,1,7
7037856321,2,-69,-23,-1,3,5,5,0
7037856321,17,48,19,2,0,0,5,5
7037863833,7,53,7,24,-4,1,0,-3
7037863833,-13,-63,15,15,5,-2,-4,-5
7037878811,21,77,-22,-37,-2,0,3,5
7037878811,4,-38,-30,-10,-9,-5,-6,-3
7037886315,-34,-80,-17,1,12,8,12,0
7037886315,3,67,19,3,-13,-5,-10,-8
7037895237,-17,28,17,-16,8,1,1,-2
7037895237,1,24,24,46,-7,-3,2,7
7037910025,18,46,-11,-10,3,6,1,-3
7037910025,3,-18,1,9,6,6,3,2
7037916312,-5,-70,3,15,-8,-1,-4,-2
7037916312,-7,19,-9,-26,8,0,16,3
7037931926,5,-23,-12,-9,-8,5,-13,1
7037931926,-7,18,12,0,0,5,-9,-6
7037938798,-9,2,1,23,-14,-23,-20,8
7037938798,14,36,14,20,1,17,15,0
7037946292,-4,8,6,-31,22,-1,-22,-1
7037946292,6,11,-18,-7,-16,-10,18,-4
7037955186,2,-10,6,-3,15,25,6,5
7037955186,-12,-7,-4,31,24,-12,-9,-5
7037969454,-3,-1,-10,3,-22,-7,-1,-3
7037969454,0,-11,7,1,8,7,3,4
7037976303,4,-35,17,-11,1,-14,-7,-8
7037976303,-7,16,4,-29,23,1,-2,-4
7037983779,8,-14,-22,-13,-17,-4,5,-2
7037983779,-3,-28,-5,-21,12,3,-1,-2
7037998784,-1,-13,-17,30,10,1,9,-1
7037998784,-9,-9,-12,2,-39,3,-11,-4
7038006341,-10,-14,7,-19,2,-6,-1,-5
7038006341,1,-8,3,34,-3,-15,-4,0
7038015212,14,11,5,22,-7,3,4,4
7038015212,-9,-11,-18,-31,7,-3,-9,-6
7038029467,6,-7,-20,-25,5,0,6,3
7038029467,-10,14,3,11,-14,4,-2,-6
7038036309,-2,-14,5,2,8,-2,0,-1
7038036309,1,12,-11,-4,-17,-8,-6,-1
7038043732,-7,-20,1,13,-5,-9,0,-5
7038043732,7,13,-7,-1,13,10,2,3
7038058830,-11,-4,-3,-11,-6,-4,3,-4
7038058830,3,4,4,-12,-10,0,-13,0
7038066345,-6,4,13,9,5,-5,2,0
7038066345,6,-4,-18,-23,-5,-1,-5,0
7038081292,-17,-26,-16,-14,-6,-12,8,-6
7038081292,14,11,3,3,6,14,3,5
7038089391,-5,-9,13,32,3,-6,2,0
7038089391,-3,3,-1,-11,-12,-29,7,-9
7038096224,0,-6,-10,1,7,41,-44,4
7038096224,1,11,17,2,-8,-27,7,0
7038103787,5,4,6,-1,7,14,11,4
7038103787,-4,-13,-7,-12,-6,0,2,3
7038118764,6,-9,3,-3,-6,12,17,-30
7038118764,-8,0,3,3,-1,-3,-11,21
7038126283,-2,-3,0,2,-3,-2,4,1
7038126283,-9,0,-6,0,-2,-6,-11,-3
7038141323,-3,-5,5,6,-2,-10,3,-1
7038141323,-3,0,5,-6,0,4,-6,-7
7038149551,8,1,-2,3,-3,-4,3,-4
7038149551,-5,-6,4,-10,1,5,-1,1
7038156308,3,5,-4,12,-4,-13,1,4
7038156308,-2,-4,4,10,1,1,9,-2
7038163869,3,22,3,-3,3,-4,-11,5
7038163869,24,-3,14,4,-12,3,5,4
7038178772,-29,-31,-73,-41,4,-6,-5,1
7038178772,-9,27,25,-4,-10,-6,-5,-10
7038186312,-10,-77,-2,30,7,4,-3,-5
7038186312,-19,6,-50,-12,-5,1,-12,-8
7038201270,16,-19,30,2,-8,-7,8,3
7038201270,27,43,-1,-7,-2,3,4,10
7038209481,14,35,14,13,-5,-1,-6,-4
7038209481,-2,21,35,0,9,3,6,3
7038216286,-12,-18,-19,-10,1,-3,-3,-4
7038216286,-8,7,-5,-18,-6,0,1,-1
7038223838,23,20,39,-1,-1,3,-2,8
7038223838,-60,-62,-13,25,1,-3,-7,-18
7038238794,12,63,15,-5,-8,0,3,12
7038238794,45,36,12,35,7,9,10,5
7038246294,-1,88,7,-27,-11,-7,-3,7
7038246294,-7,-77,-15,-2,24,5,-4,-9
7038261197,-16,-104,-10,8,-2,3,3,-8
7038261197,-28,2,-2,-42,-15,-12,-13,-12
7038269400,22,-3,30,30,4,-2,9,11
7038269400,19,77,-22,-36,-19,-7,-17,2
7038276346,-10,32,49,13,-6,-11,-9,-2
7038276346,-15,-7,-48,-1,6,8,2,-6
7038283736,-50,-109,-24,41,15,2,-4,-13
7038283736,12,-7,-13,-15,1,4,5,5
7038298845,24,37,19,13,-26,-7,2,9
7038298845,14,-41,-2,-16,43,0,-9,4
7038306346,3,28,-18,-15,-10,-9,-16,-10
7038306346,27,35,12,17,4,9,0,1
7038322639,-31,-1,-6,-23,-32,-6,25,0
7038322639,-9,-9,9,14,1,6,-28,-5
7038329593,13,-5,-9,-11,-2,-8,26,6
7038329593,-1,-4,8,30,40,16,-7,2
7038336312,10,23,2,-13,-4,-1,-8,-5
7038336312,-4,-30,-5,-1,4,-5,9,-4
7038343679,-13,1,-23,-1,-13,-6,-9,-7
7038343679,6,2,0,-97,-38,-11,0,5
7038358808,4,-7,-13,12,10,-7,0,-2
7038358808,-9,-11,10,-11,-5,-6,4,-6
7038366283,2,-6,-17,-40,6,10,-5,-2
7038366283,3,6,23,85,3,-5,10,3
7038381339,-4,-22,-13,15,21,16,-2,-1
7038381339,1,-4,3,54,-26,-17,-5,-5
7038389534,4,30,-26,-78,8,7,-2,-2
7038389534,2,-3,-1,-10,-21,-9,-4,6
7038396270,-3,13,-14,-18,20,-6,-5,-3
7038396270,-1,12,9,-35,-12,15,4,-1
7038411979,2,16,-6,52,-2,0,-1,1
7038411979,-13,6,-11,-40,-2,-5,1,-4
7038418799,10,12,13,33,-5,-2,-6,-2
7038418799,-7,3,-1,-19,-12,-11,3,0
7038426364,-7,-17,-3,1,9,-3,-4,-4
7038426364,5,3,5,29,13,3,4,4
7038441338,3,5,-3,-3,-14,-4,-3,1
7038441338,5,-10,2,-30,2,1,1,-1
7038449356,-3,1,12,15,4,6,-1,-1
7038449356,3,10,4,21,-14,-6,-2,2
7038456156,6,7,9,-2,15,8,5,5
7038456156,-3,1,-7,26,2,-8,-2,0
7038471928,-1,-4,3,-21,-11,1,16,0
7038471928,-4,-6,11,-6,4,7,-9,-4
7038478766,-5,-3,-6,0,1,-28,5,-17
7038478766,-1,-13,-11,-7,6,41,-8,29
7038486268,-2,2,6,2,-9,0,-1,-48
7038486268,10,-3,0,11,4,4,9,30
7038501229,3,-8,-1,-4,0,-14,-25,-10
7038501229,0,-9,-5,11,-3,7,21,14
7038509515,-19,-2,-5,-4,-4,-6,-35,-14
7038509515,-11,-13,3,2,-1,-2,-2,-4
7038516243,2,6,-3,-12,-1,10,-29,2
7038516243,1,7,6,4,-1,-21,-19,-14
7038531884,-28,-3,0,5,-1,7,6,19
7038531884,9,10,-9,-12,-2,-10,-2,-10
7038540058,8,1,6,1,-2,2,8,13
7038540058,-8,13,-7,5,-2,-6,-6,-9
7038546364,-14,-57,0,-1,-1,-1,2,-2
7038546364,14,20,15,4,-4,-2,-1,0
7038561286,-16,-4,-8,-4,1,3,12,-1
7038561286,-17,-1,-12,-10,-2,-1,3,-8
7038569417,15,-16,8,7,-2,-5,3,14
7038569417,-20,-66,-36,-4,3,-3,2,-10
7038576198,28,4,25,16,-6,7,0,11
7038576198,24,77,22,30,8,-5,3,-2
7038591940,-23,-21,-18,-33,-11,-8,-1,0
7038591940,1,5,-25,11,11,6,0,-4
7038598747,-30,-34,-3,-13,8,2,2,-5
7038598747,11,-1,7,-19,-6,2,6,0
7038606272,10,42,5,17,-5,-5,-1,6
7038606272,-5,34,8,-7,-4,-2,1,-3
7038622663,-4,-1,-3,9,-1,-2,-1,-6
7038622663,4,67,20,-2,-7,-6,2,0
7038629463,39,-40,8,2,4,3,-4,10
7038629463,-6,11,6,-10,-13,-8,0,-1
7038636270,-6,49,-15,-18,0,7,2,2
7038636270,-31,-103,-25,-16,-8,-8,-7,-11
7038651941,-4,69,31,21,-12,2,1,-6
7038651941,11,-15,-34,-29,3,-4,-12,6
7038658703,-5,26,12,16,10,7,5,-8
7038658703,0,16,-10,-1,-7,-6,-2,-3
7038666271,-9,38,-2,3,5,0,3,7
7038666271,11,14,25,8,3,4,13,0
7038681227,15,-16,0,10,13,12,-9,6
7038681227,-6,-43,-21,-17,-10,-3,-2,-3
7038689482,1,-17,-8,4,3,-12,9,-5
7038689482,-9,2,13,-5,1,-1,-29,0
7038696260,0,-18,-5,6,-25,-8,15,-1
7038696260,-7,-24,-11,-13,14,-10,7,0
7038711988,9,-7,-19,-19,-17,1,-5,1
7038711988,-7,-11,10,16,24,3,6,-6
7038718795,1,-4,5,16,-4,-6,-4,0
7038718795,6,-2,0,28,24,10,1,0
7038726227,3,-3,1,-13,-8,-8,-5,-1
7038726227,-5,-15,-16,-37,-14,-5,5,-2
7038741293,-15,-27,2,-5,-6,3,-4,-7
7038741293,-2,-20,3,-4,-4,13,13,3
7038750170,-3,-3,5,52,20,15,0,1
7038750170,3,1,-14,-45,-5,-4,2,-1
7038763742,6,-1,-22,-50,-5,1,6,4
7038763742,-8,-17,22,100,-3,-8,-8,-8
7038772679,10,3,-33,-92,2,2,-3,-1
7038772679,-5,-1,16,67,11,5,4,-1
7038786270,6,5,-2,17,-16,-6,4,3
7038786270,0,-1,-47,-68,-6,-5,-6,0
7038795165,4,7,3,18,-4,-17,-3,2
7038795165,5,1,6,13,-4,11,6,1
7038801209,-5,-5,-7,-16,-5,-11,-8,-3
7038801209,-3,9,31,20,-4,-6,-6,-6
7038810145,5,14,39,17,2,2,3,4
7038810145,-7,-21,-37,-39,-17,-5,-2,-3
7038823738,-3,0,6,17,17,7,4,1
7038823738,4,1,-1,-25,-8,-4,-5,1
7038832646,1,-1,-2,0,2,7,0,-3
7038832646,0,-1,20,18,2,-8,2,-1
7038846258,3,-9,-11,-13,-7,2,-20,-2
7038846258,4,1,9,5,-3,-48,2,-27
7038855145,-10,-17,-13,1,15,87,22,62
7038855145,21,5,6,19,-1,-11,-12,-28
7038861302,-49,-15,-8,-11,1,0,16,6
7038861302,-1,-14,-6,-15,-5,-17,-10,-10
7038870150,-1,-3,-5,7,-2,-15,-4,-5
7038870150,-4,12,8,-9,-8,5,38,-2
7038883740,20,9,-8,-1,4,-15,-18,-4
7038883740,-2,3,5,1,0,20,-4,13
7038892653,-1,-9,0,-1,-1,-7,8,-10
7038892653,1,-4,12,13,1,-1,-8,8
7038906311,8,2,9,-4,-2,-7,3,-5
7038906311,-5,-11,-21,2,3,11,4,5
7038915156,3,0,-12,-1,-4,-14,-19,-10
7038915156,-4,16,-5,-9,-10,-9,-6,1
7038921152,-13,-4,14,10,3,0,2,-5
7038921152,4,-26,-12,-33,-4,16,4,9
7038930145,-12,7,29,30,-14,-24,-9,-15
7038930145,-14,-15,-24,3,15,2,-10,-6
7038943799,1,50,3,1,2,3,7,9
7038943799,18,15,-2,-11,-3,5,4,4
7038952620,59,1,42,15,1,-9,2,1
7038952620,-37,-51,-50,-54,-21,0,-1,2
7038966227,22,66,26,6,7,0,-5,4
7038966227,-48,-89,-45,-11,9,10,1,-19
7038975152,-28,-34,-23,-27,-6,-12,-9,-11
7038975152,71,94,59,23,-2,7,-1,11
7038990080,-44,-65,-32,-36,4,1,0,-3
7038990080,22,45,22,29,-17,-10,-8,7
7038991600,14,80,-58,-19,5,5,4,-4
7038991600,-51,-106,1,54,-5,0,0,-8
7039020136,38,9,21,-15,16,4,-2,4
7039020136,36,19,77,30,8,7,8,10
7039021597,-46,-61,-38,-4,-10,-9,-1,-12
7039021597,7,-5,32,18,4,-11,-24,-2
7039027563,-1,-14,-9,11,-10,-3,2,1
7039027563,-7,-14,-47,-5,0,-6,-13,-4
7039035263,-24,-8,27,0,-11,-12,-6,-10
7039035263,4,10,8,-21,-8,6,12,12
7039041215,3,-11,-23,3,13,-7,-9,-3
7039041215,1,31,17,7,7,31,11,7
7039050196,13,28,2,-15,24,-6,0,2
7039050196,-15,21,-11,15,-7,-3,-7,-9
7039063801,8,-3,-25,-3,-17,1,59,7
7039063801,-6,-1,-16,37,-7,-16,-8,-5
7039072624,-4,-12,-20,-34,10,14,-6,-1
7039072624,3,-3,62,5,26,-6,8,1
7039086282,0,-27,-70,-43,-16,-9,-19,-10
7039086282,-8,1,38,-7,-7,3,6,1
7039095175,-5,-16,60,69,-28,-9,4,-7
7039095175,-1,1,-31,-27,28,-7,-11,-3
7039101126,3,4,-10,35,-16,17,-1,-1
7039101126,-10,6,29,-28,9,-9,-6,-4
7039110134,-3,4,10,-2,-2,-5,-9,-2
7039110134,13,13,-40,-12,7,20,14,4
7039123823,-2,22,21,15,-7,-4,-10,3
7039123823,-17,-44,-32,2,9,-5,-2,-8
7039132621,-12,0,30,70,-17,-5,1,-1
7039132621,19,12,-18,-53,47,9,5,7
7039146271,-31,3,9,-6,-6,-8,-6,-6
7039146271,-7,7,-2,-18,-9,0,-6,-7
7039155109,13,1,-28,5,-1,-1,3,5
7039155109,9,20,0,21,-19,-3,-2,-2
7039161302,-14,-9,-1,-21,2,-9,-17,-9
7039161302,-14,10,-2,-17,0,0,2,0
7039170140,-3,-2,1,11,8,1,0,-3
7039170140,-11,-14,-18,0,-18,-17,-5,-6
7039183767,16,-17,25,-8,-3,-1,-1,1
7039183767,3,13,-5,0,6,20,-6,-3
7039192597,7,7,-7,-19,4,-3,22,9
7039192597,-2,-1,-6,-1,-17,-6,-2,-3
7039206236,-6,-9,18,7,1,1,-17,-3
7039206236,5,8,35,12,-8,-9,-3,6
7039215120,5,0,-35,-24,5,-6,5,-8
7039215120,-4,-1,-3,2,-7,8,-4,10
7039221214,-3,-6,7,13,2,-8,20,-12
7039221214,0,7,-3,-1,0,2,5,4
7039230104,2,-3,28,-17,8,15,3,11
7039230104,-8,-17,-16,-2,-18,-19,-55,16
7039243731,-5,-4,2,6,0,-10,46,-41
7039243731,18,1,-13,-6,2,34,-16,3
7039252612,5,4,-7,-14,3,-8,3,-7
7039252612,10,6,9,7,-12,-4,7,-5
7039266281,-6,10,23,9,8,1,-31,19
7039266281,3,2,-16,1,-2,-16,2,2
7039275146,-33,-21,-19,-15,-5,1,-10,-11
7039275146,3,29,36,10,0,5,12,-2
7039290136,13,2,-4,-3,-4,11,0,8
7039290136,17,1,-19,1,-4,-8,10,1
7039291638,-4,7,13,-10,-10,0,-11,5
7039291638,-18,-33,-13,-16,-10,-9,-1,-11
7039303736,21,12,37,60,9,6,-5,5
7039303736,33,45,-40,-18,2,0,4,6
7039312628,-66,-24,-35,-31,0,-6,-16,-13
7039312628,-6,-13,16,11,0,5,9,-5
7039326313,16,57,12,9,0,-4,-6,7
7039326313,-30,-33,2,-12,-13,-10,-3,-9
7039335116,32,-5,7,-8,3,3,5,9
7039335116,-8,42,-25,30,11,4,6,-4
7039350112,13,5,-1,8,2,5,-5,9
7039350112,2,-15,8,-9,-1,0,5,1
7039351600,-4,23,-9,-5,-3,0,-2,-3
7039351600,-8,39,14,-10,-17,-5,-4,-5
7039363749,-14,-62,-4,-4,4,0,-5,2
7039363749,0,15,0,7,9,-1,4,3
7039372598,5,-32,-11,-16,-12,-5,-7,-5
7039372598,19,1,-1,-5,-3,0,5,5
7039386235,10,19,-14,-20,-7,-4,-8,-6
7039386235,-11,27,2,1,-7,-9,-5,-6
7039395148,-35,-26,-1,18,2,0,-1,-1
7039395148,-13,-36,-3,-1,-6,-2,-2,-4
7039410144,12,18,-18,-29,-22,-11,-2,0
7039410144,-12,-18,-3,45,38,11,11,0
7039411641,33,9,6,-3,-3,-2,-8,0
7039411641,1,-15,7,12,4,-7,0,-5
7039423732,-29,-36,8,2,8,13,3,-3
7039423732,15,-7,-5,-28,-9,2,0,3
7039432622,12,10,18,14,1,-6,-2,0
7039432622,-10,-20,-29,-9,1,-7,-1,-1
7039446945,-1,-4,6,-6,-15,-7,-2,-2
7039446945,-10,4,-1,-2,-6,-20,-9,-2
7039453687,8,9,0,1,7,18,9,2
7039453687,-2,-14,3,-16,-4,11,-2,-5
7039470108,1,4,0,8,20,-14,-1,0
7039470108,-12,-12,-2,-4,-17,-4,-13,-3
7039471613,10,11,-2,-1,-17,-2,-6,3
7039471613,9,2,10,29,21,6,10,2
7039483810,-20,-17,-9,-20,2,0,-2,-7
7039483810,1,2,2,13,-4,0,4,1
7039492611,14,10,24,43,0,-2,-1,1
7039492611,-9,-8,-36,-81,-10,2,0,-4
7039506823,-6,-23,-2,-18,-16,2,-6,-3
7039506823,-2,-16,-3,12,-10,-16,-5,-2
7039513795,3,-14,-8,11,13,15,6,-1
7039513795,1,2,11,14,-4,-7,-7,-3
7039530025,-28,-11,-21,-27,-20,-22,-6,-5
7039530025,6,10,1,5,13,27,12,3
7039531638,3,13,-3,-14,9,3,4,1
7039531638,18,21,5,15,-3,-11,-3,5
7039543731,5,2,-16,-12,2,14,-1,1
7039543731,1,15,16,7,-2,-8,-1,-1
7039552634,-9,-8,-4,-9,-2,-10,-2,-7
7039552634,-6,3,0,1,-2,-4,-5,-2
7039566708,22,33,-1,21,4,-3,-4,3
7039566708,-11,-9,0,-5,4,2,-6,-1
7039575137,5,4,-1,-3,0,-8,-4,0
7039575137,-4,-7,8,0,-11,-7,4,-2
7039590118,-2,-1,-1,4,7,10,-15,0
7039590118,7,-6,-2,-6,-4,-16,0,-3
7039591617,-11,-8,-13,-19,-4,12,-4,6
7039591617,-11,-18,2,7,0,6,9,-6
7039603785,-5,-22,5,8,7,4,35,6
7039603785,0,-5,-1,-8,-3,-5,2,0
7039612618,6,0,-5,-11,-9,-12,-16,-5
7039612618,-10,-3,6,3,0,-20,-2,2
7039628249,10,-7,0,7,6,33,10,3
7039628249,9,-14,-1,-9,-9,-2,-14,0
7039633886,-16,-11,0,-3,-4,-7,17,-2
7039633886,3,-1,7,0,2,10,-7,-1
7039650077,4,8,-2,0,-1,-13,-12,-7
7039650077,-32,7,6,9,1,-2,4,-4
7039651592,16,-2,-27,-22,-4,7,-16,-1
7039651592,-6,-13,-6,7,-1,6,5,8
7039663712,-26,7,-4,-7,-12,-8,-11,-9
7039663712,-17,1,27,20,16,10,12,-5
7039672623,-24,-32,-45,-1,-2,-12,-4,-5
7039672623,20,67,4,-29,-10,-1,-8,1
7039686856,16,-35,-15,14,7,4,4,6
7039686856,25,19,23,29,-23,-11,-11,0
7039693782,-12,64,1,6,43,3,0,-6
7039693782,-14,-40,32,-5,-13,7,2,6
7039710104,9,32,-8,18,36,-3,-2,1
7039710104,-17,11,-31,-32,-16,2,8,2
7039711591,-10,-45,-26,-9,0,1,2,-3
7039711591,23,6,-17,-41,-1,1,4,0
7039732600,16,73,62,6,-14,-8,-9,4
7039732600,-44,-15,9,41,1,-8,-5,-8
7039734073,40,-72,1,35,-8,-2,10,13
7039734073,-20,56,-35,-62,7,2,-9,-4
7039746992,-5,-41,-6,0,0,3,-3,-6
7039746992,3,-10,-4,-42,6,2,-4,-5
7039753798,2,59,11,-13,-23,-9,-10,-3
7039753798,18,-5,34,41,-17,-3,-3,2
7039770150,6,15,11,2,3,0,0,1
7039770150,1,7,-4,-8,12,9,5,1
7039771613,-3,-5,17,-3,-5,-19,-4,0
7039771613,-2,5,-4,11,-10,-1,-28,-11
7039783712,-12,5,-27,-21,3,3,6,-2
7039783712,12,-3,-4,1,-5,2,11,0
7039792616,10,21,24,5,7,11,0,4
7039792616,-11,-14,-10,26,24,-16,-1,-5
7039806908,-13,-10,0,-19,-38,-7,-28,-4
7039806908,6,-43,-16,-10,-3,-15,27,1
7039813726,3,-11,12,4,-5,9,-1,-7
7039813726,2,-11,-11,-9,16,3,11,4
7039830048,-8,-50,-7,12,33,11,17,-2
7039830048,15,5,11,-11,-11,0,-7,-1
7039831568,-16,-3,-22,-5,-6,0,-10,-6
7039831568,-2,-24,20,34,-6,0,14,-2
7039843765,2,-4,-6,-28,-3,2,16,6
7039843765,-4,4,-6,-7,-4,-7,-14,-2
7039852595,-15,-20,11,-29,-12,3,0,-3
7039852595,3,-10,-9,40,6,-5,-4,-1
7039866938,11,18,-6,-11,-17,-10,-4,4
7039866938,3,27,23,55,20,16,-3,-1
7039873752,-14,-4,-11,-57,7,-1,-3,-2
7039873752,6,6,-7,11,0,5,5,4
7039890102,-5,3,1,14,-13,-4,0,-3
7039890102,11,4,-30,-99,-9,-5,-8,-1
7039891597,3,16,25,66,0,-8,4,1
7039891597,5,-2,-28,-51,-4,4,-1,-2
7039903761,-21,-14,-10,15,3,-4,-2,-5
7039903761,-5,-16,9,8,-7,-1,-8,-2
7039912614,10,15,3,-5,-4,-14,11,1
7039912614,-6,1,2,2,-1,28,-2,-3
7039926883,4,-3,12,15,-2,-10,-5,-1
7039926883,8,4,-7,-3,0,-5,6,-1
7039933744,-5,-5,-5,-14,-7,5,-48,4
7039933744,-8,-4,6,18,-4,-22,6,-8
7039950090,8,0,0,-15,2,53,8,4
7039950090,18,-4,-6,2,1,-14,13,7
7039951576,-30,0,4,11,2,-5,65,3
7039951576,-11,-13,13,0,0,9,-12,4
7039972592,-13,-12,-14,-7,-2,-12,-13,6
7039972592,-3,-18,-9,6,-1,-4,-9,-8
7039974065,4,1,8,7,-2,-1,-19,-5
7039974065,8,4,-4,-5,1,-5,9,-1
7039986882,3,1,5,-2,-4,-21,0,-10
7039986882,7,4,6,13,0,11,-1,5
7039993725,2,7,-13,-6,0,-1,3,3
7039993725,-12,-9,0,-6,-8,-2,-5,-3
7040009917,12,6,-1,-8,-8,-11,-19,-1
7040009917,-34,1,4,9,0,4,-10,-6
7040011557,17,12,11,5,21,8,8,2
7040011557,-13,2,-9,-3,2,14,-1,-2
7040024021,-15,-2,2,6,0,-4,10,-2
7040024021,-8,-9,-21,-10,-10,-4,-2,-2
7040032562,7,4,7,-11,-14,-9,-15,-8
7040032562,17,10,13,17,4,0,3,7
7040046736,6,6,12,7,4,-2,-4,4
7040046736,-10,-3,2,0,1,-5,-4,-6
7040053551,9,18,-12,-2,-5,-2,-6,-2
7040053551,17,-32,-19,-2,-2,-6,5,-2
7040069938,-51,4,-2,13,-2,-1,1,-6
7040069938,4,18,-3,-20,-2,-1,-7,-1
7040071549,9,-9,7,-1,1,4,5,6
7040071549,0,28,0,9,8,-3,-3,-3
7040083585,10,-48,5,35,-8,-4,5,1
7040083585,7,7,-13,-31,13,8,-4,-1
7040098575,-13,13,2,-3,-7,-1,-2,-2
7040098575,10,-39,8,-3,1,7,3,5
7040106744,-6,10,16,-5,-6,-7,-7,-8
7040106744,6,-18,-3,8,-11,-3,2,3
7040113597,-4,-3,-8,-10,-1,-4,-7,-10
7040113597,-6,35,2,-10,-1,-5,-3,2
7040129929,9,9,-8,-10,5,0,8,0
7040129929,8,9,2,10,-8,-5,-5,0
7040131513,-5,5,-12,-7,1,-4,-3,-3
7040131513,-16,-6,5,5,-12,4,-2,-3
7040143591,7,1,-12,-27,1,-6,-11,-2
7040143591,-20,-7,17,36,7,5,0,-4
7040152591,12,-12,-9,-5,16,16,9,5
7040152591,4,-4,-7,-17,0,-9,0,1
7040166774,7,-10,-5,-2,-11,-16,-8,-1
7040166774,0,-5,-10,-4,-7,11,0,-2
7040173613,-7,-7,13,14,3,-8,-2,-2
7040173613,-12,-14,-17,-2,-5,-2,-6,-9
7040189949,8,7,-14,-14,-5,-10,2,5
7040189949,-4,-6,0,5,-5,4,-7,-5
7040191530,-3,-11,-3,21,3,3,-4,0
7040191530,-4,10,16,-11,13,-2,8,-4
7040203599,5,10,-1,7,-1,-6,-2,0
7040203599,-1,-6,26,23,-16,-2,-2,2
7040212597,-16,-16,-25,-2,32,16,8,-6
7040212597,5,10,6,5,-9,-3,-5,3
7040226747,-9,-11,-27,-31,-3,1,0,-3
7040226747,0,-10,-3,-41,-8,-6,1,3
7040233587,0,2,10,34,-4,-7,-9,-3
7040233587,-3,2,-1,-10,-18,12,8,-4
7040249897,13,22,26,12,11,1,10,10
7040249897,4,7,-2,6,14,-6,-1,-4
7040251506,-2,-10,-10,-19,-21,-5,-6,1
7040251506,-10,-9,-11,-2,-2,-4,-17,-10
7040263602,16,24,8,2,-2,13,14,10
7040263602,-7,0,10,11,6,-22,4,-1
7040272799,-1,7,10,-6,-3,7,-1,-1
7040272799,-6,-4,-4,-3,-1,-3,11,-1
7040286861,-8,-17,2,4,3,7,-10,-8
7040286861,7,5,-9,1,3,-2,0,-2
7040293712,-3,-8,2,-6,-12,-1,31,8
7040293712,-9,-12,-6,-1,1,-10,-8,-1
7040309437,-3,2,-1,4,4,-1,-9,-9
7040309437,-4,-12,-14,-9,-2,0,5,-1
7040316213,8,-3,-3,-7,-12,-8,-8,-5
7040316213,-7,-5,10,10,5,-13,17,-9
7040332580,0,-10,-6,-4,8,12,4,15
7040332580,-1,4,-3,-5,-3,23,1,-1
7040334060,2,0,4,2,-1,-1,-10,-2
7040334060,13,-2,1,-1,-4,-7,4,6
7040346236,-3,10,1,0,2,-7,-7,-6
7040346236,5,-7,-4,-4,0,2,-3,1
7040355094,-1,-10,-2,4,-4,-10,-6,-5
7040355094,-10,-8,2,3,1,8,-12,4
7040369283,-15,-13,20,3,-5,11,1,-6
7040369283,4,-22,-33,-10,5,2,-8,4
7040376256,5,-8,-8,-12,-9,-10,1,-5
7040376256,9,8,3,-6,-4,-8,-7,4
7040392488,-10,-9,3,-5,5,2,-2,-2
7040392488,3,-3,-18,-2,-5,-2,9,1
7040394063,-11,9,-9,-1,-4,-4,-10,-8
7040394063,-5,4,-24,-9,-12,-7,-13,-5
7040406956,4,26,3,-4,-15,-11,0,1
7040406956,-23,-12,31,45,15,14,6,-8
7040413733,0,-30,-36,-22,26,5,2,5
7040413733,63,37,27,40,-6,4,-3,11
7040429455,-12,-10,-8,-22,2,-6,-4,-10
7040429455,-45,27,-36,-7,-14,-16,-13,-10
7040436181,-27,-14,48,23,-17,-8,-10,-11
7040436181,17,7,-52,-32,10,3,6,-1
7040452537,20,10,42,62,22,6,5,6
7040452537,3,35,58,-68,-20,-6,0,6
7040454058,-24,51,-41,-45,-7,-5,-5,-6
7040454058,-56,-6,-4,0,-12,0,-8,-15
7040466192,11,-5,-33,-12,3,-1,2,-1
7040466192,31,22,21,22,5,2,0,9
7040475115,14,9,-14,-3,-2,2,1,2
7040475115,15,10,42,-16,-6,-8,-3,2
7040489374,-24,6,-25,-1,-13,2,-2,-7
7040489374,5,-2,-16,15,6,-7,-2,1
7040496189,20,-1,28,12,1,6,1,6
7040496189,2,-16,-4,-1,-4,-6,-2,7
7040512564,-21,-3,-12,1,14,0,-9,-9
7040512564,10,13,8,11,-1,-9,12,12
7040514066,0,2,0,2,11,28,5,3
7040514066,-16,23,7,9,-5,14,8,-5
7040526154,12,0,-8,-21,-9,-38,-7,-2
7040526154,3,-33,-16,-29,-19,7,6,2
7040535065,1,6,31,29,15,5,10,-1
7040535065,-2,-32,-26,-42,-7,10,5,3
7040549488,7,-28,7,36,25,0,-17,0
7040549488,1,-19,-33,9,23,3,23,-2
7040556234,-3,-6,-2,-19,-19,-8,-10,-1
7040556234,-3,-16,6,2,-12,7,4,0
7040572522,-4,-8,7,-27,-27,-3,-2,-2
7040572522,-3,1,-6,-9,0,-12,-13,-6
7040574059,10,-3,11,18,-11,-11,-2,2
7040574059,-2,-2,14,32,13,-7,5,2
7040586188,-4,-5,-8,-1,25,14,-1,-4
7040586188,-5,4,-7,-13,-21,0,-8,-5
7040595079,6,-8,-16,-26,-4,1,9,3
7040595079,-14,-7,-2,-1,6,-2,-11,-6
7040609422,-2,-3,-2,-13,-15,4,9,4
7040609422,7,5,3,23,12,-2,-6,-2
7040616184,4,3,-2,-6,10,0,0,3
7040616184,-10,1,7,19,-8,-10,-10,-7
7040632546,-2,-1,-3,-19,-8,2,3,-5
7040632546,7,-3,3,7,5,5,-3,2
7040634040,-17,5,8,12,-2,0,1,0
7040634040,4,13,-3,-4,13,-1,0,2
7040646208,2,2,1,-9,-26,-11,-1,-1
7040646208,-3,-7,-6,9,10,2,-8,-3
7040655083,1,4,-5,11,7,-2,1,-2
7040655083,1,0,10,9,8,-5,-5,1
7040669428,-6,-6,-8,-4,-7,-9,1,-1
7040669428,-1,-3,-4,-19,-8,18,-8,-5
7040676202,5,-5,-2,3,-6,-7,-6,0
7040676202,3,-5,-4,-8,-3,-2,-9,-5
7040692487,-8,1,2,1,0,7,6,7
7040692487,14,3,11,10,0,-10,9,1
7040694067,-5,4,-1,-2,-7,-26,-12,2
7040694067,-2,-18,-11,-10,0,29,16,-4
7040706210,2,7,-3,2,0,-5,1,0
7040706210,-8,-15,4,-2,-1,-2,-7,-2
7040715069,1,-9,-3,-3,-3,-7,-6,-2
7040715069,-8,2,-4,-6,3,-7,-16,4
7040729360,11,14,1,7,1,6,16,2
7040729360,-3,-5,-2,-6,-1,-3,-2,-2
7040736183,0,-11,-1,-6,-7,-2,0,-3
7040736183,0,4,4,8,4,-5,-7,-3
7040752544,-2,-4,17,-5,-3,7,-7,-3
7040752544,1,1,-8,-1,2,-4,-2,3
7040754043,5,-14,-13,7,5,5,2,-3
7040754043,10,22,6,1,1,-2,3,3
7040766162,-12,-5,-11,-6,-8,-6,-3,-2
7040766162,-3,14,18,-7,-10,-6,-4,-1
7040775074,-1,-16,-20,4,8,7,3,-2
7040775074,-22,-26,-11,-1,4,0,7,-4
7040789316,21,9,6,5,0,0,-2,2
7040789316,-19,-28,10,4,-5,-6,-10,-1
7040796238,-17,65,-4,-17,-11,0,0,-7
7040796238,21,28,0,-3,-6,-7,0,5
7040812468,-19,-76,-13,-15,-5,-1,-2,-8
7040812468,3,4,-2,23,8,1,-1,-1
7040814017,-4,-32,18,3,-1,-1,0,-1
7040814017,11,4,-6,12,10,5,9,11
7040826148,5,-1,4,0,4,0,-5,-2
7040826148,-1,14,-4,-7,1,0,2,4
7040835085,4,42,11,6,-9,2,-5,-6
7040835085,-31,-65,-12,-19,12,2,-3,-10
7040849412,15,-4,-3,14,1,2,1,4
7040849412,6,-30,-6,4,-5,-4,-1,2
7040856196,15,18,2,-20,-5,-4,-2,4
7040856196,3,8,2,0,-8,-3,-3,-5
7040872531,-6,26,-4,-5,-3,-2,-2,0
7040872531,-16,16,-7,-14,-4,5,1,-7
7040874064,-1,-10,6,4,-6,-10,-1,-1
7040874064,4,17,1,0,-3,6,2,-2
7040886210,1,2,0,2,12,-4,-2,2
7040886210,-1,11,-9,10,16,14,0,-2
7040895053,4,-16,-6,-1,20,1,2,4
7040895053,1,7,-1,-6,-20,1,-5,-8
7040909360,-11,25,-2,2,14,-16,-4,0
7040909360,12,-12,3,11,-12,-4,-6,1
7040916211,4,-11,1,-3,15,13,10,4
7040916211,5,5,2,-12,-3,-10,-1,2
7040932509,-5,0,5,12,-17,7,1,-5
7040932509,-9,-23,-27,-16,12,-18,-8,-7
7040934020,-6,-21,0,14,-24,-13,-9,-6
7040934020,-7,0,25,13,-9,-7,-3,-4
7040946123,2,-8,-18,-21,17,13,5,0
7040946123,11,8,6,6,9,4,6,7
7040955087,-4,7,11,13,-7,-5,-2,-3
7040955087,-7,2,5,-1,14,-3,-6,-2
7040969411,8,3,-5,-2,-5,4,3,1
7040969411,-1,0,7,-6,-4,8,-1,-1
7040976169,-3,-6,-3,15,-3,-6,0,1
7040976169,1,-3,-15,0,1,-2,6,6
7040992546,-4,-13,-13,-21,-8,1,-4,-3
7040992546,2,13,2,-5,-12,-3,-3,-4
7040994042,-27,-30,-17,-7,14,7,13,1
7040994042,11,-11,-10,-2,-11,1,-8,1
7041015073,1,15,-8,-9,-7,-9,0,1
7041015073,5,4,8,14,8,0,7,-3
7041016536,0,-9,-4,-15,-9,3,-4,-2
7041016536,7,9,9,12,8,2,8,4
7041029418,5,4,-1,0,-4,-4,-5,-2
7041029418,-18,-5,5,-8,-10,-16,-4,-5
7041036215,-3,-4,1,5,2,18,0,-1
7041036215,-2,0,-12,-17,0,1,1,-2
7041052558,-2,3,1,5,-13,-1,-4,-5
7041052558,1,11,1,-10,-2,-6,-2,1
7041054072,12,18,-4,-5,6,3,1,2
7041054072,-9,-11,-9,-9,-11,-20,0,-7
7041075074,1,-2,2,9,2,15,-16,7
7041075074,-9,-13,-12,-3,2,4,11,-4
7041076518,1,-4,0,-6,-1,-8,-10,1
7041076518,-2,-2,3,9,-2,-5,3,-2
7041088686,-1,-10,-2,-2,-10,-14,17,-9
7041088686,7,2,0,-7,-4,4,12,5
7041097520,2,-1,1,0,-6,-2,-5,1
7041097520,9,-12,-4,-3,3,4,-12,1
7041112507,-13,-4,1,-1,2,-9,7,-3
7041112507,-3,2,6,0,-1,4,-12,-1
7041114018,-6,-14,-9,-5,-7,-14,-3,-7
7041114018,-7,-1,1,-1,0,7,13,-4
7041135050,19,9,2,6,6,2,-15,8
7041135050,-17,6,5,-1,-6,-13,-5,-3
7041136540,18,-2,6,-5,2,21,8,1
7041136540,-1,31,9,1,-2,-4,-1,1
7041148720,-32,-52,-4,42,12,4,-2,-5
7041148720,-16,-1,-25,-32,-3,4,-11,-2
7041157524,8,17,-9,1,-9,-12,-1,-1
7041157524,-15,-38,0,-11,2,-3,-15,-9
7041172509,1,10,16,-11,5,4,7,3
7041172509,34,28,-18,-14,-10,-4,-2,2
7041174015,-42,-1,10,21,-10,-6,-3,-1
7041174015,30,-29,-39,-17,9,7,7,17
7041195262,-25,28,13,45,-11,-5,-10,-14
7041195262,36,6,-11,-8,18,7,10,8
7041201060,-19,19,1,2,-23,-7,-5,-8
7041201060,-2,107,2,-25,12,-1,-7,-5
7041208680,-36,-97,-34,-28,-9,-5,1,-1
7041208680,30,9,23,21,-8,-4,-4,5
7041217689,1,-9,-28,3,2,-1,1,-2
7041217689,-10,-17,26,9,-7,-2,-2,2
7041240051,19,11,-16,-25,12,15,8,0
7041240051,-8,-4,12,10,-5,-7,-2,-2
7041241489,9,-2,21,1,12,5,1,5
7041241489,-21,-21,-5,-2,-14,-5,-3,-5
7041255033,20,46,16,-6,-8,-4,-2,1
7041255033,-21,-18,8,12,5,4,-1,-5
7041256618,10,2,-3,-6,6,-14,0,0
7041256618,-5,-4,-7,10,7,1,-8,1
7041269310,16,37,-4,-12,-19,21,5,-2
7041269310,-14,11,4,3,14,-15,-12,-10
7041276094,-4,-6,-18,-29,-10,15,-2,-2
7041276094,5,5,7,20,7,-19,-16,6
7041291890,5,-2,16,23,33,12,34,7
7041291890,-13,-31,-24,-30,-31,-10,-4,-5
7041298644,1,-8,10,3,8,-4,-9,-3
7041298644,7,-17,3,17,21,-5,-8,0
7041314978,4,-12,-5,-11,-17,6,-10,1
7041314978,-9,-15,-9,-2,1,-4,11,-2
7041316539,4,-1,10,-5,-4,-6,0,-1
7041316539,-8,-15,-8,-4,-14,-4,6,-4
7041329322,-1,-3,6,-6,8,-13,-9,-3
7041329322,0,0,-5,3,-2,-1,-1,1
7041336186,-9,-9,-6,-15,-8,4,-6,-4
7041336186,4,-5,1,13,3,6,8,-2
7041351893,18,17,-2,-11,-10,-16,-6,8
7041351893,-14,-12,-9,-3,1,7,-1,-7
7041358608,6,6,-6,2,15,0,4,4
7041358608,-21,-14,-1,-18,-11,3,3,-8
7041374280,-8,0,-3,8,-7,-10,-6,-4
7041374280,0,6,17,-10,-15,-3,-2,1
7041375001,0,-1,-4,1,11,0,1,-2
7041375001,4,6,-2,9,-3,7,3,1
7041390065,1,-5,-9,-8,-6,-9,-9,-1
7041390065,3,-5,7,-1,4,4,-1,0
7041396137,-2,-4,2,-3,-6,-2,-1,0
7041396137,5,1,-1,-1,8,-4,6,-1
7041411205,-3,1,0,3,1,13,-3,0
7041411205,-2,0,0,2,0,-1,1,0
7041418685,4,-1,-9,0,-1,10,-6,0
7041418685,1,5,-2,-1,-6,-1,-1,-2
7041434327,-4,-5,0,-7,0,-12,-5,-4
7041434327,-1,7,6,6,2,-1,1,5
7041435086,2,-2,0,-5,-9,6,-16,-7
7041435086,-3,-3,-3,-1,5,-2,3,0
7041450052,8,0,-4,-3,-1,-4,0,0
7041450052,0,2,-4,1,-3,-3,-5,0
7041456172,-14,1,2,1,-1,-15,11,-3
7041456172,-1,-1,-2,-6,-7,19,-30,0
7041471177,-7,-5,2,0,-1,-10,8,-3
7041471177,2,-6,-1,4,2,-3,-1,-2
7041478676,29,10,5,0,2,1,4,4
7041478676,-9,-5,2,-2,-4,-7,-3,-6
7041494359,-5,-5,-6,1,1,-1,1,2
7041494359,1,10,6,4,4,8,-2,2
7041495005,-25,-23,-5,-2,-1,-5,-1,-5
7041495005,22,4,-3,0,-5,-2,5,0
7041510050,-6,-3,-17,-17,-5,-2,-9,-5
7041510050,-5,-8,-2,0,4,7,7,-2
7041516112,-2,25,21,20,9,3,4,6
7041516112,-2,-36,-15,8,0,-1,3,-2
7041531186,-7,-15,3,-25,-8,-3,-1,-4
7041531186,8,0,4,41,1,-4,-8,0
7041538667,1,-2,-24,-41,-11,-7,-5,-5
7041538667,5,39,-1,0,2,5,9,3
7041554316,14,30,19,13,6,1,-1,9
7041554316,-18,-35,-1,-4,-13,-3,-4,-8
7041554993,7,-12,-11,9,9,-2,-1,3
7041554993,-13,-7,1,-5,-10,-4,0,-8
7041570001,2,-2,-8,-22,1,2,1,3
7041570001,-3,-11,1,25,13,5,1,3
7041576036,3,15,8,0,-10,-4,0,-4
7041576036,16,19,-2,-6,-6,-4,-1,5
7041591133,-13,-32,9,29,0,1,-1,-3
7041591133,-9,28,-2,-16,5,-1,-3,-5
7041598593,1,-3,-1,6,8,8,4,1
7041598593,3,23,0,-5,-3,-4,-2,-5
7041614171,1,19,7,13,2,-1,-2,4
7041614171,14,6,-5,-10,-10,-3,-1,3
7041614964,-6,8,-2,-5,-1,-5,-3,-2
7041614964,-11,6,3,-4,2,-11,5,0
7041630046,-7,-6,-2,11,2,19,-1,-4
7041630046,1,12,2,-2,-1,-6,2,-1
7041636096,6,1,1,7,-4,2,-8,-1
7041636096,-3,-20,-1,-13,12,8,8,2
7041651188,-8,-11,-5,4,14,-5,-2,-1
7041651188,3,5,-3,-9,-11,-11,-4,-3
7041658600,2,-17,24,30,-7,0,2,0
7041658600,-6,-18,-15,-36,-1,-11,-4,-1
7041674315,2,7,-1,18,-16,11,-1,-5
7041674315,-3,-9,-12,-4,13,-3,0,0
7041675039,3,-2,-1,-2,-12,-21,-7,-1
7041675039,-13,-21,7,14,-3,7,2,-1
7041690063,4,11,-3,-7,1,-11,0,-2
7041690063,-5,-6,11,6,-6,9,-2,-4
7041696187,-1,-10,-2,-21,13,14,12,3
7041696187,-1,5,3,-7,-6,2,-3,-5
7041711213,13,0,2,42,8,-6,0,3
7041711213,-8,-16,-9,-29,-3,1,1,-1
7041718642,-5,10,0,0,-7,-8,-5,-1
7041718642,-3,3,5,4,4,6,-1,-3
7041734339,-4,-1,-3,-19,-1,-3,1,-3
7041734339,12,10,-6,0,-2,-3,-2,2
7041735017,-17,-6,3,0,-2,0,0,-3
7041735017,4,-2,-2,13,-3,-5,1,3
7041750043,2,-1,5,3,9,1,-2,0
7041750043,-7,-3,-12,-7,5,7,4,-1
7041756135,4,2,-10,-22,-8,-3,-3,0
7041756135,-10,-11,0,15,-12,-20,-10,-7
7041771215,0,-5,-7,-16,-2,9,-4,-1
7041771215,-1,4,6,-6,-3,2,10,1
7041778646,4,4,2,15,8,7,-9,2
7041778646,-7,8,-2,-10,-10,-2,11,-12
7041794361,7,10,5,-5,-6,-18,-20,4
7041794361,0,-4,-9,-10,-7,-3,-25,0
7041795012,2,-4,0,1,1,-6,60,-2
7041795012,13,-4,-2,3,3,6,-65,8
7041810094,-15,3,-4,-15,-5,-3,47,-3
7041810094,7,-8,1,8,-5,-8,-61,-10
7041816159,4,-13,-3,-2,5,10,78,11
7041816159,-1,2,-2,0,5,27,-7,11
7041831177,-5,-20,-5,-6,0,-4,14,-3
7041831177,-11,-3,5,-1,0,-7,19,-8
7041838593,0,2,5,1,0,-2,-26,-3
7041838593,-4,0,-1,9,2,1,44,4
7041854218,-1,6,21,20,0,5,-13,1
7041854218,-2,-5,-26,-21,10,0,20,-3
7041855137,-5,-3,1,-15,-25,-11,-60,-8
7041855137,-8,-15,-16,21,27,1,11,-1
7041870045,3,-3,-9,-13,-6,-4,-3,1
7041870045,8,1,10,5,-7,0,2,-1
7041876193,-6,2,1,14,2,0,-11,-6
7041876193,16,-1,-4,-16,-8,-5,3,5
7041891145,-8,13,15,-3,-5,-2,-1,-7
7041891145,-8,-2,-3,6,1,2,-8,-1
7041898647,26,13,-4,-14,-6,-7,-12,6
7041898647,-11,-3,1,9,6,5,15,-4
7041914260,-23,34,-1,14,-7,-8,-25,-8
7041914260,13,-53,6,-26,-3,6,9,4
7041915084,-24,-27,-4,7,5,4,-1,0
7041915084,38,95,10,-22,-3,0,4,5
7041929996,10,-61,-21,25,11,-3,-9,-5
7041929996,-17,0,-42,-21,-19,-11,0,4
7041936190,-11,-62,-19,-21,-33,-8,-6,-12
7041936190,-6,52,6,35,24,2,-6,0
7041951171,-1,-40,10,-35,3,4,3,4
7041951171,-36,41,-2,-5,-13,-9,-5,-17
7041958626,12,-57,-19,17,2,-7,-19,0
7041958626,-26,1,-22,-44,-30,-11,-7,-12
7041974895,9,43,-39,-11,-12,-6,-5,-5
7041974895,-7,-27,9,23,14,8,9,6
7041975728,-9,77,26,-20,3,3,0,1
7041975728,10,-50,18,17,-4,-12,-3,5
7041990023,3,-18,16,-2,10,11,9,-3
7041990023,17,4,-1,-2,3,-5,-19,10
7041996065,0,18,4,18,23,27,14,4
7041996065,6,-7,6,7,1,-5,6,-2
7042011173,0,12,-7,-11,-18,-10,-8,1
7042011173,7,30,11,3,1,-2,-6,-8
7042018622,-2,12,0,3,18,7,-16,9
7042018622,1,-36,0,6,1,6,2,-1
7042034226,-8,5,0,-27,4,1,4,-2
7042034226,2,-1,12,70,20,1,18,2
7042035098,8,-5,-17,-31,-10,-16,-10,-6
7042035098,-6,-19,-6,-24,-11,4,0,-2
7042050172,-2,-3,-5,14,3,-2,-15,1
7042050172,6,7,10,0,-6,2,5,0
7042056090,-4,-5,-8,10,3,5,5,-7
7042056090,-6,-12,3,-6,-2,-7,-14,-1
7042071050,6,12,6,14,-11,-10,-1,1
7042071050,1,-10,4,-14,9,6,11,2
7042078688,1,-2,-1,4,5,-4,5,1
7042078688,-9,-9,1,-1,-11,-11,-2,-5
7042094308,5,-2,-3,-16,2,13,3,3
7042094308,-3,6,7,7,-6,-2,-5,-6
7042095019,-8,2,-1,-19,-9,-16,3,-1
7042095019,7,14,-2,19,4,5,-3,2
7042109967,1,6,6,26,0,1,3,1
7042109967,0,8,-2,-6,-11,-7,0,-1
7042116158,-2,3,-6,-13,8,7,0,-1
7042116158,-2,-4,6,-2,-4,0,-6,-2
7042131181,3,1,-8,7,27,6,6,1
7042131181,1,-9,9,37,-3,-2,1,-1
7042138658,11,6,-7,0,5,-2,-2,4
7042138658,-8,-11,3,-14,-26,-10,-2,-6
7042154279,-8,-6,-19,-11,-2,-3,0,-4
7042154279,0,1,5,-5,8,11,1,0
7042154989,-8,-4,-4,12,0,-3,-6,-4
7042154989,14,2,4,3,-3,2,4,2
7042170014,2,-1,3,-13,-11,-12,-6,-1
7042170014,-3,-1,1,-13,-3,12,-4,-2
7042176096,-4,-7,4,11,-1,-6,-6,-1
7042176096,-18,-13,-7,-7,5,6,2,-7
7042191140,-3,-6,13,3,-8,-11,-16,-6
7042191140,2,-4,-11,-17,-2,-1,44,11
7042198635,3,0,4,2,-3,1,-60,-2
7042198635,5,2,-3,4,3,6,25,1
7042213656,4,4,6,2,0,-15,2,3
7042213656,-2,-4,-2,-11,-5,17,-15,-1
7042221059,-29,-2,-1,-1,-3,-12,-3,-15
7042221059,7,-5,-3,4,7,9,-7,4
7042230014,10,1,-2,-3,-4,0,-1,8
7042230014,-2,-2,-5,-9,-1,-6,-4,-7
7042236132,4,9,4,3,-1,2,15,1
7042236132,-5,-3,-7,-4,0,-10,-37,-5
7042251088,-3,-4,5,-4,-1,3,16,0
7042251088,4,6,-2,-4,-1,-4,-9,4
7042258658,8,12,3,-2,-7,-7,10,-1
7042258658,-7,10,-7,-5,0,-4,1,-1
7042273656,2,-26,-16,0,2,9,-7,-3
7042273656,-3,-14,1,-1,-1,-6,0,1
7042281032,-15,41,17,22,3,0,1,-1
7042281032,-5,-18,-29,-10,-5,-6,2,-2
7042289988,3,10,-9,-16,-2,3,-1,0
7042289988,4,-18,-7,11,0,-1,0,-2
7042296093,10,-8,8,-19,-9,2,11,5
7042296093,15,0,16,10,9,5,5,0
7042311135,-26,-65,-22,-10,1,-3,1,-1
7042311135,13,33,27,3,-6,-9,-8,-3
7042318649,-4,9,-23,1,5,3,4,0
7042318649,-25,-17,12,-18,-9,-7,0,0
7042333632,15,-11,-18,-10,-2,2,-3,0
7042333632,6,5,7,9,4,-3,-2,5
7042341162,-2,1,9,4,-8,-1,1,-6
7042341162,4,-21,-14,-12,-3,-4,-4,-7
7042356809,-26,26,13,24,9,5,3,-4
7042356809,0,-16,-9,-19,-9,-6,-6,2
7042357515,16,6,4,9,2,4,5,3
7042357515,-5,0,-9,-6,-8,-8,-4,-2
7042371164,-3,54,16,1,0,6,-10,-4
7042371164,-3,8,-12,-9,0,-2,6,-4
7042378595,4,-21,-2,-9,-7,-11,-5,2
7042378595,-13,-11,4,18,12,3,-6,-5
7042393683,4,-7,-7,-7,0,-18,-4,2
7042393683,3,15,1,10,-2,13,-5,1
7042401170,-2,-28,-7,8,12,13,21,1
7042401170,1,10,4,-7,-7,-7,-1,2
7042416723,-2,-5,4,7,-8,-2,6,-3
7042416723,-9,0,-12,-17,-3,-12,-8,-4
7042417494,-1,-13,6,10,14,6,0,1
7042417494,11,5,10,23,-20,11,4,6
7042431122,-2,-3,7,-17,6,1,6,-2
7042431122,4,-9,-7,28,6,-10,0,1
7042438635,5,6,-4,-16,-1,-3,-4,-2
7042438635,-1,2,-8,-8,8,9,7,2
7042453650,10,15,-2,46,-3,5,1,1
7042453650,-12,-18,-15,-44,-10,-3,-3,-7
7042461154,-10,-6,-2,-28,-5,-9,-7,-5
7042461154,-6,-13,-21,24,11,-9,-3,-4
7042476783,10,18,5,28,-14,-5,-4,-1
7042476783,-13,0,9,-40,23,0,-7,-9
7042477502,3,14,-4,5,-1,-1,3,2
7042477502,1,10,20,-9,-4,-11,1,0
7042491143,-1,-7,-24,-42,-4,12,-3,-3
7042491143,-2,-2,-1,27,-6,3,11,2
7042506913,-6,-2,2,-5,-7,-5,-3,-3
7042506913,9,12,13,2,0,-2,0,0
7042513661,-3,10,5,6,3,-2,-2,0
7042513661,-7,-14,6,3,-5,-3,-1,0
7042521021,1,-1,-14,-8,-3,6,2,1
7042521021,-1,8,-6,-3,-2,-6,4,-2
7042536806,-7,-16,10,-3,2,-3,-8,-2
7042536806,13,9,-3,3,-4,-26,-5,5
7042537491,-2,-14,-3,12,2,42,15,3
7042537491,2,-2,0,1,7,8,3,2
7042551123,11,2,0,-24,-9,-8,14,1
7042551123,-4,-12,-8,3,1,-14,-24,-8
7042558539,-9,-16,7,2,-9,-6,3,-3
7042558539,10,-9,-2,-3,3,3,8,-6
7042573648,-9,-10,2,-8,-2,-8,-59,6
7042573648,-1,6,-3,2,-3,11,11,-4
7042581030,-3,-4,-5,3,0,-19,-6,-5
7042581030,-2,-6,-2,-8,-1,9,4,1
7042596763,-10,-2,4,1,-5,-5,-9,-7
7042596763,1,-2,0,1,-2,1,-16,3
7042597478,-5,-9,-3,-1,1,-1,13,-1
7042597478,-10,-1,-6,-5,-3,-6,-6,-6
7042611135,15,28,7,2,2,5,17,6
7042611135,19,-8,0,-1,-2,0,-9,6
7042626719,12,11,-11,-3,-3,6,14,1
7042626719,-61,1,6,1,-3,-4,-21,-12
7042633621,3,15,10,0,0,-1,14,-3
7042633621,5,-25,-21,4,-2,2,16,-3
7042641068,10,-6,-5,-2,-5,-16,-17,4
7042641068,19,72,9,0,0,0,4,4
7042656787,-12,-41,-15,7,-1,-1,-9,-4
7042656787,-2,-11,3,-20,-7,4,4,-1
7042657475,-16,-22,-21,4,2,-9,-9,2
7042657475,34,82,0,15,-4,2,-6,9
7042671180,-50,-90,-28,-21,7,9,17,-12
7042671180,15,16,11,-2,5,-4,1,2
7042678636,-21,96,42,9,-6,-1,-10,-11
7042678636,-8,-116,0,32,-5,-7,3,-3
7042693677,21,13,-24,-16,11,-8,-5,0
7042693677,28,81,57,11,15,12,12,3
7042701172,13,-7,-25,-26,-15,-7,-1,8
7042701172,-29,-55,-30,8,3,5,11,-2
7042716769,-40,61,-18,-2,14,7,-15,-18
7042716769,-58,-11,-24,-7,-23,-17,-19,-17
7042717465,23,-8,9,-7,-8,1,-3,3
7042717465,43,62,31,-6,34,8,13,16
7042730997,29,-13,11,15,-7,1,11,11
7042730997,-1,-11,-11,2,-8,2,1,4
7042738584,-10,40,5,11,18,17,-6,-6
7042738584,-5,-17,-13,-46,-21,-32,-18,-6
7042753578,1,36,30,69,0,5,12,1
7042753578,-1,20,-26,-50,32,2,-5,3
7042761021,8,-30,5,7,-14,1,5,2
7042761021,-9,-2,-3,1,13,0,-6,-7
7042776782,2,-23,-1,-19,-21,-8,-9,-5
7042776782,3,-29,-11,-12,-38,-33,-4,-2
7042777491,-7,-49,5,-12,21,12,9,-1
7042777491,-5,-14,-8,7,27,27,14,1
7042791149,12,12,29,55,-10,-3,-1,0
7042791149,-3,-26,-20,-41,4,1,0,-5
7042798662,-17,-7,7,-12,-13,-9,-9,-8
7042798662,2,12,16,38,-33,5,-13,-7
7042813491,-5,-23,10,-20,4,-2,5,0
7042813491,0,13,5,29,16,5,9,-1
7042821127,3,-2,-20,-23,-13,-20,-5,-2
7042821127,-8,3,-14,-19,-18,1,-3,-2
7042836780,-2,-24,-8,9,15,8,4,1
7042836780,-13,-9,-14,-2,-18,0,-2,-4
7042837453,-2,18,18,18,-9,-11,-4,-5
7042837453,4,-5,-7,20,18,1,5,0
7042851089,12,5,0,-26,-12,-9,-3,5
7042851089,-6,9,16,9,-1,5,-3,-5
7042858608,10,6,-7,12,0,-3,2,3
7042858608,-14,-16,-11,-32,-8,-5,-5,-3
7042873596,5,22,-8,-9,3,-6,3,1
7042873596,6,7,10,21,-1,12,-11,1
7042881117,5,4,2,13,6,-5,-4,1
7042881117,4,13,8,-2,1,-7,-8,5
7042896836,5,11,-13,-25,-2,-2,25,2
7042896836,-1,-8,8,21,7,13,12,1
7042897487,-25,-12,-8,-4,7,3,-2,-4
7042897487,2,6,0,-19,-16,-15,-5,0
7042911168,7,11,9,1,5,11,-10,-3
7042911168,-14,-27,-15,-7,-6,-11,-4,-3
7042918633,31,-15,-6,5,5,-1,17,1
7042918633,-19,-16,-6,-9,-5,-2,-8,-12
7042933583,-34,-12,0,-8,-7,4,43,7
7042933583,3,-5,2,8,0,3,4,0
7042941095,-4,-10,-7,-6,1,0,-18,-1
7042941095,14,-4,2,-2,-3,-4,14,-2
7042956759,13,0,-4,-9,-5,-15,-24,-4
7042956759,-5,5,4,8,2,12,6,1
7042957443,8,12,-3,0,-3,-9,-9,0
7042957443,-30,-37,-2,-2,-3,1,-6,-3
7042971027,1,18,-3,-5,-2,3,-9,-2
7042971027,10,12,2,3,-3,-3,0,6
7042978596,-1,-1,-10,2,1,0,-6,-4
7042978596,10,15,5,5,6,1,-2,2
7042993516,11,12,-3,-11,-4,0,-12,0
7042993516,-10,0,0,19,3,1,8,-1
7043001058,-20,16,-8,-32,-1,4,5,0
7043001058,6,-10,22,47,-2,0,-2,3
7043016686,1,0,-42,-69,-3,-2,3,-1
7043016686,13,-70,19,33,8,-3,-5,5
7043017687,-6,69,-4,-14,-18,-7,-7,-7
7043017687,0,6,-7,30,19,3,0,-2
7043031118,10,13,-3,-17,-2,4,-3,-2
7043031118,10,8,2,-2,4,3,2,6
7043038583,-8,-8,-3,9,8,4,1,2
7043038583,-5,-40,-1,-21,-16,-10,-4,-8
7043053571,3,4,20,27,-1,-1,-7,0
7043053571,-11,4,-7,-8,6,5,0,-6
7043061067,2,-19,-2,-1,-10,-6,1,3
7043061067,14,34,-4,-15,-5,-6,-3,4
7043076718,-19,-34,2,6,12,8,3,0
7043076718,15,-1,-17,-14,-19,-5,-5,-1
7043077497,-7,13,11,14,19,5,1,0
7043077497,5,1,-1,-14,4,9,-5,4
7043091001,20,6,2,5,-6,-10,-4,4
7043091001,-34,22,6,9,-18,-8,3,-13
7043098594,16,12,2,19,6,-3,-21,4
7043098594,-1,23,-20,-44,-5,-2,8,-2
7043113606,10,5,4,27,7,1,13,0
7043113606,9,29,1,-8,-7,-8,-6,0
7043121155,-15,-44,-3,6,12,0,4,-6
7043121155,-3,-12,6,10,2,7,-6,-1
7043136063,-7,-26,2,1,-9,-4,-4,-1
7043136063,8,-5,-8,-4,-6,-5,-1,-1
7043144072,4,-36,10,1,-2,-3,4,-1
7043144072,-1,-9,2,11,8,-3,-2,-2
7043152460,-14,-11,-1,-9,-11,-8,-5,-8
7043152460,0,1,-5,-10,-10,-4,-5,1
7043158636,5,-3,-6,5,2,3,6,0
7043158636,7,7,0,-3,2,-9,-1,2
7043173574,-4,6,2,4,2,4,-10,-5
7043173574,-7,-5,-5,-3,-2,0,2,-1
7043181082,-4,-5,9,32,2,-2,-6,-8
7043181082,6,11,-12,-39,-16,-4,3,1
7043195999,-12,-6,-12,-3,0,2,0,-5
7043195999,2,6,-6,-15,2,1,-1,0
7043204309,10,7,19,27,11,4,7,4
7043204309,-11,9,-12,17,1,0,-1,-3
7043211121,3,5,7,2,3,-6,-5,2
7043211121,-4,-10,-8,-16,0,17,6,0
7043218600,-4,-21,-22,-20,-9,4,-5,-1
7043218600,8,6,5,7,1,-7,-1,6
7043233607,2,8,-2,1,3,4,-6,2
7043233607,-3,5,-1,4,5,-2,3,-3
7043241111,-4,-15,-6,-18,-8,-3,10,1
7043241111,1,-4,-6,-7,-5,0,-5,-5
7043256135,7,7,7,3,-7,8,19,5
7043256135,-6,7,4,2,10,-9,-7,-2
7043264262,-7,8,5,-7,-2,-2,-9,-3
7043264262,2,-1,-5,-5,-4,-2,2,-3
7043279274,-4,-6,3,-1,-3,-8,-4,-4
7043279274,3,4,3,2,1,13,-12,1
7043279965,-9,-5,-3,-8,1,2,5,-3
7043279965,-7,-8,2,4,5,3,2,-2
7043293608,-4,-1,2,-1,-8,-12,-12,-5
7043293608,10,-6,3,4,3,-2,6,4
7043300969,7,-10,-8,-11,-9,-17,-4,1
7043300969,-2,-10,3,-4,-2,20,-19,-1
7043316084,-12,-9,-2,5,6,-4,3,0
7043316084,-4,-7,2,-1,-3,-5,6,-6
7043324301,4,-6,-5,-5,-9,-3,-29,3
7043324301,7,11,1,-9,-1,-3,11,-3
7043339161,-1,-8,-8,-10,-2,0,-9,0
7043339161,-11,-2,4,10,3,5,8,-2
7043339946,1,9,1,2,0,-3,-1,-3
7043339946,-2,7,-1,3,-3,-4,1,-1
7043353516,14,7,-5,-11,-7,7,-12,2
7043353516,-9,3,-9,-9,-3,-8,-3,-2
7043361835,-3,4,-2,-8,-4,-3,6,-2
7043361835,7,1,3,3,-4,-6,-1,0
7043376059,-14,13,7,11,14,6,8,-3
7043376059,-5,-11,-4,8,2,-1,-3,0
7043384267,14,9,6,-16,-13,-1,0,-1
7043384267,0,-5,-13,-15,-10,-12,-3,2
7043399310,8,10,17,24,7,2,-2,-1
7043399310,-12,-2,-14,-3,15,4,-4,1
7043399979,-2,-5,0,2,2,4,3,0
7043399979,4,5,0,-8,-8,-6,0,-1
7043413586,-1,-8,-8,-9,-12,-8,-2,-2
7043413586,3,3,7,6,5,1,-2,-2
7043421810,-2,4,1,3,-7,-17,9,-2
7043421810,-6,-1,2,-1,1,9,-1,5
7043436102,0,-4,-8,-5,2,16,9,1
7043436102,-4,-2,3,-2,-6,-2,-1,-1
7043444220,3,1,-6,-3,0,4,-3,-1
7043444220,0,1,6,8,4,-6,-1,-2
7043459151,-1,1,2,2,-2,-9,-6,-3
7043459151,-1,-5,1,-4,-2,-1,-1,-4
7043460122,-22,-2,2,6,2,2,6,-2
7043460122,-2,-8,-11,-5,-2,8,-1,0
7043482423,19,-2,-5,-1,-2,-2,-4,3
7043482423,0,4,5,-1,-3,-11,1,-3
7043483116,-4,-5,-4,-3,1,13,-10,-3
7043483116,-8,-2,5,3,3,1,0,-3
7043496077,-2,-6,-3,-10,-7,-9,-1,-2
7043496077,19,3,-4,-8,-4,4,-1,4
7043504289,-4,3,-1,-16,-12,-9,-10,-4
7043504289,-11,-6,-3,20,19,3,5,-2
7043519234,-3,-7,-8,9,6,-8,-1,-1
7043519234,-2,7,-1,-7,-4,12,-1,-2
7043519979,6,-3,-2,-4,0,3,3,3
7043519979,1,-2,-2,-11,-17,-12,-12,-4
7043533579,-13,8,15,1,-7,-6,1,-1
7043533579,-1,5,-1,1,9,5,5,-1
7043541808,2,-13,-13,-3,-1,-2,1,0
7043541808,0,-8,-4,-4,-2,1,1,-1
7043556057,-5,1,3,3,5,9,-1,-4
7043556057,0,3,4,3,-8,-14,-7,-2
7043564230,2,0,0,1,1,2,3,-1
7043564230,2,9,2,1,-5,-6,0,-2
7043579204,1,1,1,-14,-4,-6,-3,3
7043579204,4,-4,-7,9,9,3,0,-3
7043579941,1,0,-3,4,7,7,5,2
7043579941,-17,-2,5,6,3,-5,1,-2
7043593594,-2,-5,-4,-5,-5,-3,-3,0
7043593594,-2,-4,4,0,-6,-11,-5,-1
7043601726,3,5,-2,-11,-7,-3,-5,-2
7043601726,-1,-4,-11,-13,-6,2,0,-1
7043616060,-5,-3,-1,18,0,5,-4,-2
7043616060,-3,-13,-6,1,-4,-3,8,0
7043624280,0,4,3,5,2,0,4,-1
7043624280,0,8,2,-6,-2,-2,-4,-2
7043639107,-1,-4,-7,-12,-4,-3,0,-1
7043639107,0,-2,0,4,3,-4,-6,0
7043640056,0,11,7,8,-2,-2,-5,-1
7043640056,1,-7,-3,0,0,3,0,-1
7043653484,5,-4,-2,-7,1,0,2,2
7043653484,-4,13,0,-3,-8,-4,-5,-1
7043661669,1,-8,-3,-4,1,-3,-1,-5
7043661669,-17,-11,2,2,-3,0,0,3
7043676052,-1,-1,-5,-4,-2,-2,9,-1
7043676052,3,1,-4,-5,2,4,-12,-2
7043684175,-2,-5,-4,1,-3,-9,2,-1
