timestamp,emg1,emg2,emg3,emg4,emg5,emg6,emg7,emg8
6950803085,-2,-8,-1,-9,-5,0,-1,-2
6950803085,7,-5,4,15,8,6,5,0
6950809270,-8,15,-2,-7,-7,-5,0,-2
6950809270,-6,-10,-11,-13,-8,-7,-11,-1
6950810868,3,-8,-1,-6,-1,1,5,1
6950810868,7,10,2,8,0,-4,-2,1
6950813020,1,-6,-10,-6,0,0,-1,1
6950813020,0,-3,1,-2,-5,-3,2,-1
6950816471,-5,3,-2,-4,-3,-2,-4,-3
6950816471,-2,2,6,2,-4,-2,-2,-1
6950831238,-2,-12,0,7,7,9,5,-3
6950831238,3,7,5,3,-2,-3,-1,1
6950838965,1,7,-6,-5,-1,-2,-4,-3
6950838965,-4,-5,-3,-6,1,2,2,0
6950846179,0,-9,0,-5,-5,-4,-5,-1
6950846179,-6,-1,5,1,-5,-7,-4,-5
6950864066,4,6,2,13,9,8,5,2
6950864066,0,0,-3,-7,-12,-13,-6,-1
6950867598,-8,-6,-11,-1,2,3,1,-3
6950867598,9,-3,-13,-13,-1,2,5,-1
6950879084,-1,-2,0,1,-4,-2,-2,1
6950879084,-21,-12,-5,-1,3,0,-11,-8
6950891245,0,2,-2,-6,-5,-7,26,-3
6950891245,8,5,12,13,11,5,-1,8
6950930707,1,-9,9,2,1,7,12,2
6950930707,5,7,-4,-5,-2,-1,0,-2
6950931701,-9,-17,-5,-5,-4,-6,4,-10
6950931701,1,-6,-3,-3,-2,1,7,2
6950932374,3,13,1,-3,0,-1,4,-2
6950932374,-3,-6,0,3,-1,-5,-32,-1
6950935585,-2,-12,2,2,1,7,19,-3
6950935585,-6,9,-1,-2,-5,-32,-30,4
6950942384,2,-2,-2,-3,1,41,38,-6
6950942384,-2,-26,-7,-1,1,-13,-10,-2
6950949934,30,8,0,1,1,13,-25,17
6950949934,-34,-3,-2,-5,-3,-6,-26,-14
6950958757,-16,1,1,5,7,-10,-1,-6
6950958757,5,13,4,-1,-8,-8,7,2
6950972409,-8,19,0,-2,1,-5,-14,-2
6950972409,25,5,-2,-2,-1,0,13,7
6950981223,9,-3,-6,-1,0,-3,-6,-7
6950981223,-2,17,1,-1,0,10,6,1
6950987358,-2,6,2,-4,-7,-4,-12,1
6950987358,-19,-31,9,8,-2,-4,7,-4
6951002278,1,18,1,-10,-2,1,-14,5
6951002278,22,-50,14,28,0,-2,3,-1
6951009861,-42,-6,-42,-28,2,-2,3,-10
6951009861,11,-20,-14,-19,-3,5,2,1
6951018760,19,0,12,10,-3,-6,-2,7
6951018760,15,-3,34,19,10,7,3,5
6951032423,-12,67,-34,-34,-4,-3,12,-5
6951032423,-13,72,18,25,-14,1,-1,-12
6951041246,-43,-106,-8,-21,-5,-18,-26,-13
6951041246,3,-13,-43,-50,-3,-2,5,6
6951047380,27,-8,2,4,15,11,9,14
6951047380,-14,45,-31,-3,5,8,19,-10
6951062324,38,-44,20,12,5,10,-14,9
6951062324,-30,22,12,20,-13,-11,-10,-13
6951069887,34,44,21,13,1,-4,10,11
6951069887,15,-81,-6,-26,-4,-3,-13,2
6951078745,6,37,18,19,-2,-1,12,20
6951078745,-48,-79,-24,-12,2,-1,13,10
6951092360,-32,15,-19,-6,-8,2,7,-37
6951092360,35,-7,16,8,-8,-16,-23,-8
6951101256,2,19,-29,2,3,1,-23,7
6951101256,-14,-7,5,10,-9,-6,-16,-11
6951107376,15,-19,1,-41,5,-6,2,0
6951107376,10,14,12,23,-7,8,-4,13
6951122266,-30,-11,-19,-30,3,-23,8,-17
6951122266,18,41,2,10,-9,12,13,3
6951129833,-4,-25,41,38,11,8,-6,4
6951129833,8,2,1,-33,4,10,-8,-3
6951138793,-5,11,-25,-20,-4,-24,-6,3
6951138793,2,18,1,-14,6,-16,3,-4
6951152330,-11,-58,28,34,-20,15,-2,-5
6951152330,0,-5,-3,-15,34,22,23,10
6951161282,8,20,-5,19,30,12,16,5
6951161282,-4,-8,11,-31,-20,-7,1,-8
6951167329,10,-12,-20,2,-14,-15,-12,1
6951167329,3,20,-3,17,22,2,9,2
6951182425,-8,-4,7,-37,-26,5,3,-5
6951182425,10,18,-11,8,-5,0,-6,-3
6951189875,-12,-20,7,-41,-29,-16,-7,-1
6951189875,5,12,-23,13,10,12,14,8
6951198744,-28,-36,-17,-25,-13,2,-4,-15
6951198744,-4,-11,-8,-14,-5,4,0,-1
6951212392,12,23,1,69,8,-1,4,9
6951212392,-18,-9,-2,-44,-3,-10,-3,-8
6951221211,16,32,12,21,5,-3,-5,4
6951221211,8,35,-27,-16,-17,-10,-10,-4
6951227388,0,-17,-1,-6,14,0,1,4
6951227388,-19,-25,15,27,-3,10,-4,-8
6951242412,7,18,-15,4,-3,4,-10,8
6951242412,6,6,14,15,17,10,11,6
6951249914,-3,-2,5,-4,-5,-35,-16,-5
6951249914,-5,-21,6,-5,-7,12,3,-3
6951258736,9,-3,5,11,8,0,13,-12
6951258736,-2,-7,5,3,15,-5,-65,-12
6951272323,-3,-12,2,-4,2,15,26,58
6951272323,-6,-9,-4,3,-13,-19,15,2
6951281245,-10,2,7,3,-7,10,31,-23
6951281245,-2,-2,1,12,13,6,-7,-14
6951287449,-5,-9,-10,-5,-3,-5,-12,4
6951287449,-4,3,0,-1,-11,-18,2,19
6951303787,9,14,7,7,1,-15,-30,-11
6951303787,4,-19,-4,-5,1,6,18,16
6951309885,5,12,9,0,4,13,1,-23
6951309885,-19,0,1,4,-3,-13,-16,-8
6951326253,5,6,2,3,-7,-3,-8,7
6951326253,-14,35,13,2,-1,5,6,-4
6951332376,6,-7,-3,-2,2,-1,1,-5
6951332376,5,-33,-12,7,-11,-6,-16,-13
6951341288,-7,39,-13,-12,4,5,0,10
6951341288,10,-52,-12,2,-5,2,22,-1
6951355605,24,39,-4,7,-3,-14,-14,-8
6951355605,-44,-14,-12,-2,1,8,3,-3
6951362383,17,-48,0,-12,-20,-12,-9,-3
6951362383,-60,41,-16,-13,6,1,10,1
6951369893,53,58,14,15,13,18,12,9
6951369893,2,-60,-51,-18,2,-3,-15,-22
6951378703,-21,40,-20,10,12,12,5,11
6951378703,7,23,25,11,-12,-10,-9,-4
6951392387,3,62,0,-19,-5,-10,-11,2
6951392387,57,-28,34,7,-14,2,41,13
6951401264,-63,24,-30,5,-2,-12,-33,-5
6951401264,-13,-76,-26,-28,12,11,-6,8
6951415584,14,-6,16,11,6,2,-11,-19
6951415584,-10,10,-8,-30,-8,-12,-11,-8
6951422378,7,23,25,-1,-7,-3,47,4
6951422378,19,11,15,22,0,0,-31,-6
6951429820,16,-53,1,4,1,-2,16,7
6951429820,-5,75,9,7,3,6,0,8
6951438766,-9,-16,21,29,-2,-10,-7,-16
6951438766,2,10,-15,-20,-2,11,6,9
6951452342,-4,-11,-11,1,5,-1,4,-6
6951452342,14,40,12,-7,-14,-5,-12,0
6951461267,-35,-47,9,5,-4,-9,-12,1
6951461267,7,-12,-22,-16,0,14,15,-2
6951475532,-7,-6,2,25,12,-5,-18,-9
6951475532,-5,27,4,11,21,2,-2,6
6951482356,8,10,6,-19,-31,4,-5,1
6951482356,8,-27,-1,-21,30,-9,0,-6
6951489765,-42,-18,-4,4,-9,-5,9,4
6951489765,1,-6,17,8,-11,12,0,-2
6951498737,20,-23,0,38,19,17,7,5
6951498737,16,19,26,31,-1,4,21,10
6951512352,-25,-20,-23,-33,-2,8,5,-7
6951512352,0,-29,-17,-19,4,-16,-10,-3
6951521229,13,-5,-23,-40,-5,-1,-10,-1
6951521229,-16,-5,-6,10,-48,-15,1,-9
6951535565,-14,-2,29,51,9,-9,-11,-9
6951535565,-1,2,-27,-96,-2,0,-5,-3
6951542308,13,14,8,17,4,1,6,3
6951542308,6,24,5,13,0,-6,1,-1
6951549861,-6,-6,-13,-28,-14,-5,-6,-4
6951549861,-10,4,28,14,0,-1,-3,-6
6951558731,15,12,-10,-3,8,2,3,6
6951558731,3,2,2,0,7,2,7,2
6951572346,-15,-12,6,-16,-20,2,-1,-5
6951572346,5,7,-9,31,7,-10,-8,-1
6951581239,4,9,7,-29,-3,0,-2,1
6951581239,0,9,2,3,-6,-12,-11,-8
6951595584,8,-5,-18,2,5,11,13,8
6951595584,-8,-3,-5,16,-3,9,-4,-1
6951602215,-2,3,8,4,-5,-7,-2,-3
6951602215,1,8,-10,-11,-3,-10,-21,-3
6951609794,9,0,0,3,14,8,26,7
6951609794,3,0,-2,14,-7,4,1,2
6951618731,5,5,9,6,4,4,-3,0
6951618731,1,14,7,7,4,0,4,11
6951632344,-11,5,-10,-17,-7,-9,-17,-18
6951632344,4,13,2,8,0,-3,-16,5
6951641259,21,-10,9,4,0,-8,0,11
6951641259,-16,-28,6,1,1,18,11,-24
6951655535,-28,-27,-4,-3,-3,-2,19,3
6951655535,-3,4,19,15,-5,4,12,3
6951662278,-9,-13,2,30,-4,-3,-15,-15
6951662278,2,-8,-36,-39,8,-11,-8,1
6951669889,3,2,9,-6,2,11,7,3
6951669889,-4,-18,-21,-12,-3,0,3,-5
6951684870,-9,-36,7,16,-1,-6,5,4
6951684870,4,31,7,-6,-6,1,4,4
6951692299,0,-12,-21,8,0,-8,-17,-4
6951692299,-12,10,20,5,-2,-3,1,1
6951701218,26,3,-23,-32,-2,-1,-1,0
6951701218,-7,-20,10,4,-5,-3,4,-4
6951715458,65,69,26,36,5,9,-11,20
6951715458,-52,-56,-29,-7,0,-7,-3,-11
6951722206,-5,40,0,-22,-8,3,0,0
6951722206,23,14,40,28,-2,-5,10,11
6951729763,-38,-37,-68,-37,1,1,0,-11
6951729763,18,65,1,35,15,7,5,-1
6951744821,50,22,51,-17,-5,5,9,6
6951744821,-27,22,-38,3,1,-2,-15,12
6951752317,22,6,-3,-24,-16,-14,-23,-5
6951752317,18,19,-29,19,0,-3,-7,5
6951761274,-44,-65,8,-47,-5,-1,-1,-11
6951761274,16,52,12,67,6,-2,9,-1
6951775530,1,42,-17,-47,14,12,5,9
6951775530,5,12,25,-7,6,7,8,2
6951782360,10,-15,6,25,0,0,2,3
6951782360,10,-1,47,-20,-1,1,0,-5
6951789843,-9,-45,-39,-54,-13,-16,-8,-1
6951789843,22,-10,15,-10,-4,4,2,-1
6951804871,-14,42,-33,3,13,4,4,7
6951804871,-37,-9,16,17,-15,-9,-9,-15
6951812358,-24,-53,-24,-15,-20,-14,-13,-12
6951812358,23,-1,1,-2,-4,-7,-5,-3
6951821197,-19,-22,5,11,-6,1,13,3
6951821197,6,-7,-3,19,23,4,14,0
6951835501,13,-8,43,50,10,13,-21,0
6951835501,10,-8,-1,-7,-14,-13,4,-5
6951842360,-29,21,-4,2,-5,10,30,-4
6951842360,3,-26,-71,-10,14,6,4,9
6951849843,-2,0,8,-17,9,-9,12,3
6951849843,-19,3,11,17,-48,-12,-10,-10
6951864892,22,20,-5,17,-35,8,-9,-7
6951864892,-3,-16,-29,7,59,7,5,5
6951872320,2,8,25,45,20,18,17,-1
6951872320,-4,-1,11,16,9,-5,-7,8
6951881203,-10,-9,-5,-28,-26,-30,-18,-10
6951881203,-25,-55,-16,-89,-30,-3,-13,-14
6951895510,5,34,45,63,-20,-9,1,4
6951895510,-10,-14,-65,-47,1,2,1,-2
6951902255,-3,-13,-14,-17,29,-5,-18,-6
6951902255,9,11,27,-18,-5,-4,-2,1
6951918032,-19,-13,-14,-32,-8,-10,-9,-11
6951918032,-1,7,22,18,7,10,8,4
6951924831,-1,-17,-12,-9,0,-2,-9,-5
6951924831,4,16,-1,8,-25,-18,-11,1
6951941119,-11,3,23,13,-12,4,0,-4
6951941119,6,-4,-10,-22,21,11,7,2
6951942679,10,9,-8,5,15,-1,-3,6
6951942679,-4,1,0,-31,-4,-4,-8,-5
6951954726,3,-5,-6,8,-3,1,0,-2
6951954726,-3,-9,1,-11,0,-11,-3,-1
6951963752,-17,-11,6,47,9,12,3,-3
6951963752,18,-8,-11,-19,-13,1,-6,0
6951978055,-19,8,24,-5,2,1,13,-5
6951978055,-3,-7,-16,8,10,10,1,7
6951984836,6,1,11,2,3,-13,-14,3
6951984836,-10,-16,-22,15,-12,-7,-31,-12
6952001192,14,0,-8,-6,3,2,2,6
6952001192,9,14,3,-9,-2,-3,28,-6
6952002710,-6,-1,-20,-4,-2,0,-20,6
6952002710,7,19,33,6,-3,0,-9,1
6952014859,-8,-7,7,1,0,-1,-10,-6
6952014859,-3,-15,-19,-2,-6,-10,41,-18
6952023681,9,9,2,0,7,12,-77,19
6952023681,11,11,4,8,0,5,33,4
6952038050,-11,-1,-6,-9,-1,-6,-8,-4
6952038050,-1,7,24,27,-1,3,-23,3
6952044787,1,1,-26,-27,-3,-14,24,-13
6952044787,2,-4,15,24,3,3,6,5
6952061211,-8,-1,-15,-22,-3,8,-6,2
6952061211,4,0,10,2,-9,-20,-10,-1
6952062735,1,10,0,19,16,22,-3,-3
6952062735,-4,-39,16,22,-7,2,13,1
6952074816,24,38,-14,-35,0,-4,2,2
6952074816,-4,-6,-1,8,-4,0,-3,1
6952083712,-17,54,8,-6,-4,-8,27,-8
6952083712,4,38,27,49,5,4,8,3
6952097999,-5,17,-42,-29,7,2,-7,0
6952097999,-24,-30,5,-28,-7,-7,-27,-5
6952104831,4,-19,-23,-7,-9,-9,9,-2
6952104831,-10,-37,-14,-13,-5,1,-8,-4
6952121211,0,35,18,29,1,2,10,-1
6952121211,11,16,3,-14,5,9,-5,8
6952122698,7,-42,9,16,-4,-5,18,-4
6952122698,-3,0,-13,-31,-6,-7,-11,-4
6952134914,2,-21,3,-6,-12,-7,3,0
6952134914,-7,-18,10,29,12,12,1,4
6952143695,29,74,25,-9,7,-1,-1,3
6952143695,-41,-13,-42,-17,-2,-9,-2,-10
6952166194,-10,-21,5,6,-8,-2,2,-3
6952166194,-1,77,0,1,-1,4,-7,-4
6952167669,-14,-47,-4,-1,4,-2,6,-9
6952167669,35,85,15,-11,-4,2,5,16
6952181135,-13,-20,-5,12,-8,-6,-20,-10
6952181135,-18,5,-6,25,13,4,4,1
6952182686,-1,-24,3,-1,-10,6,8,5
6952182686,-5,-1,10,38,14,3,5,-7
6952194749,12,-10,-4,8,-7,-6,-3,7
6952194749,18,-44,-5,-25,4,-2,-2,1
6952203707,-26,-5,-21,10,11,1,-3,-10
6952203707,-6,-35,-4,-13,2,6,27,6
6952218055,-2,5,0,7,1,-1,2,-1
6952218055,12,-5,20,16,-8,-1,0,-1
6952224835,13,-20,-8,-6,-6,-13,-1,0
6952224835,-2,-6,0,4,5,12,-30,5
6952241159,-17,-16,13,31,8,-9,11,-7
6952241159,9,-18,9,12,-6,15,5,7
6952242656,3,-3,-18,-38,-6,-17,-18,-5
6952242656,-2,2,2,35,0,-9,-15,-8
6952254753,3,1,0,15,-6,5,12,1
6952254753,-17,-27,-6,-13,7,-2,-4,-6
6952263709,12,23,-9,65,13,-1,-3,4
6952263709,-4,-8,30,-9,-13,-5,3,-6
6952278058,-9,-19,-5,-35,23,-3,-3,-11
6952278058,-5,-5,9,3,-2,-9,-4,-3
6952284879,7,19,3,-2,-6,-6,2,3
6952284879,10,2,-6,-10,-11,0,6,3
6952301246,4,5,14,43,8,1,-7,2
6952301246,-13,-8,-13,-35,-8,5,6,-4
6952302701,-7,7,-4,-30,-6,-2,-2,-4
6952302701,8,3,-3,2,1,-1,-3,0
6952323704,-1,5,4,-11,-9,-9,-10,-2
6952323704,-20,-34,-9,-19,1,4,-5,-7
6952325169,-7,-14,2,-9,-8,2,9,-1
6952325169,1,8,4,-11,3,2,21,-7
6952338064,1,1,-4,-1,-9,-4,6,4
6952338064,8,33,-4,-1,-5,-11,-5,0
6952344761,-9,-5,12,11,6,10,10,-3
6952344761,-5,6,-15,-13,-1,-10,-15,-1
6952361191,27,12,-5,-17,-6,10,13,5
6952361191,1,22,11,22,8,2,9,10
6952362724,-19,-38,-3,-13,-8,4,0,-4
6952362724,7,-8,-10,-4,4,-2,-8,-2
6952374804,-11,-19,-7,-7,-2,-1,-13,-8
6952374804,7,1,-6,0,-1,-7,11,7
6952383715,7,2,7,6,2,9,7,1
6952383715,-2,-3,-10,-16,-11,3,-10,2
6952398084,-4,-9,1,3,2,-2,3,-4
6952398084,2,-9,-3,0,-5,-9,-9,-7
6952412335,1,1,3,-4,-2,-8,-14,-2
6952412335,6,3,-3,-3,0,-3,11,2
6952421178,-20,-11,-7,-5,-1,1,-11,-3
6952421178,7,6,-4,0,-1,-12,9,-1
6952422672,6,5,-3,-5,-4,-2,-29,1
6952422672,5,1,-5,-1,3,9,3,7
6952434857,0,7,3,1,1,3,0,0
6952434857,2,23,-2,1,-4,2,1,-1
6952443676,-4,3,3,4,-4,-4,7,-5
6952443676,-1,-6,2,0,-7,-6,-6,-4
6952457977,10,9,-7,-3,7,-2,-5,3
6952457977,7,11,-4,-6,-2,6,-1,5
6952464881,-14,-9,-3,-13,-3,0,1,-2
6952464881,-17,-18,8,14,4,2,-5,-2
6952481208,-10,-2,25,12,-11,-1,8,0
6952481208,-31,-48,-29,-11,-2,-3,-16,-14
6952482717,13,-48,-25,-2,2,-3,4,-1
6952482717,59,73,9,4,-5,1,5,16
6952494800,-35,-12,1,-23,7,0,5,-3
6952494800,5,9,32,62,-14,-2,-11,-9
6952503693,-50,19,-15,-48,24,1,1,-9
6952503693,-14,-124,-30,9,-2,-1,-5,-4
6952518059,8,78,10,10,1,-24,0,-8
6952518059,21,36,-20,-2,4,18,-10,2
6952524854,14,-2,43,30,-13,2,-27,-7
6952524854,-15,-29,-7,-18,-6,3,21,8
6952541195,7,-48,-55,-70,-1,-4,-7,-3
6952541195,-19,45,42,50,7,-2,6,1
6952542672,11,-16,0,-18,26,-8,-4,6
6952542672,-11,78,-6,-44,-19,-6,8,-5
6952554883,5,-58,-15,-3,-3,-2,21,5
6952554883,-12,-33,-33,-72,-44,-6,-3,-3
6952563681,3,18,28,35,11,10,13,-4
6952563681,19,0,7,31,30,4,-1,13
6952578690,10,33,76,25,-6,-4,-8,-10
6952578690,-13,-8,-72,-87,9,0,-1,8
6952584745,4,21,-14,4,-26,-26,-4,-4
6952584745,-18,14,0,-9,-7,19,-19,-5
6952599833,36,19,-11,29,2,7,0,7
6952599833,-15,7,19,21,3,1,3,-2
6952607325,-11,-39,-4,-24,-2,-9,-16,0
6952607325,5,-14,-2,20,-22,-13,-1,-7
6952623005,-20,-34,-15,-26,11,9,-14,-3
6952623005,22,-8,10,17,-3,2,0,-1
6952623669,9,-3,-9,2,9,14,18,7
6952623669,-12,3,17,22,14,-11,-18,-7
6952638689,17,-3,-14,1,-2,3,7,7
6952638689,-19,-5,9,-3,2,-7,-6,-5
6952644741,-19,-15,-16,-6,-6,2,9,-4
6952644741,12,23,1,-14,-12,-10,0,0
6952659680,-25,-13,4,-11,-20,-7,-14,-10
6952659680,22,1,7,-4,11,2,1,7
6952667325,9,10,15,24,-3,1,-21,-9
6952667325,-13,0,-19,-23,-3,-3,28,4
6952682979,0,-9,-18,7,-3,0,-19,-3
6952682979,-9,-10,13,4,0,-6,-5,-2
6952683666,8,7,9,12,-5,-2,5,2
6952683666,3,-9,-4,-17,0,-3,-7,-8
6952698696,12,24,10,17,6,4,21,10
6952698696,4,11,5,10,-1,-10,6,0
6952704762,8,-2,-8,-8,-11,9,-4,-3
6952704762,-39,-8,-2,2,4,-5,-5,-8
6952721188,2,16,8,13,7,4,-2,-1
6952721188,7,-16,0,-3,2,4,-2,4
6952727232,11,23,1,3,1,-13,2,7
6952727232,18,17,12,6,5,10,2,3
6952742944,-16,-6,-6,-6,-6,4,1,-8
6952742944,-1,3,-3,-5,-1,-14,2,2
6952743740,6,-1,1,1,-5,-4,12,10
6952743740,-3,-25,1,0,4,6,-27,-5
6952758678,9,11,-3,6,7,-6,13,3
6952758678,-11,-1,-3,6,6,12,-14,-6
6952764776,-9,-3,-6,-5,-7,-20,0,-2
6952764776,-2,-19,1,-5,-1,13,25,-6
6952779739,-2,-13,-5,-4,-3,7,-15,2
6952779739,17,-13,4,1,3,-1,-5,4
6952787206,4,-7,1,-4,-4,-1,9,4
6952787206,-13,9,-3,-4,3,-7,-2,-12
6952802831,-22,-10,-6,-1,-3,-9,2,3
6952802831,-6,-3,-2,2,1,13,7,-6
6952803770,17,12,-1,-1,2,5,2,8
6952803770,8,7,-1,-2,-3,-14,-4,5
6952818691,3,4,-1,0,-3,1,1,-1
6952818691,-10,-12,-1,-1,-2,-13,-6,-4
6952824818,5,10,0,-4,1,9,6,-2
6952824818,-4,-1,-2,-5,0,-7,-2,-1
6952839838,12,23,2,0,-1,2,-8,2
6952839838,-12,19,-10,-7,-5,-4,-1,0
6952847270,-38,-80,-21,5,-3,3,-6,-9
6952847270,10,-16,18,-2,4,2,4,-4
6952863004,19,20,-7,6,-3,-5,-4,9
6952863004,36,87,25,11,7,3,4,-3
6952863699,-20,-75,-39,-19,-13,-3,-5,-11
6952863699,-25,86,-6,-11,-1,1,-2,0
6952878685,-40,-45,-10,-13,0,1,1,-15
6952878685,10,12,2,-2,0,1,6,6
6952884842,28,66,25,15,12,5,7,6
6952884842,3,-7,-5,-5,-11,-12,-7,-16
6952899786,33,12,-1,-11,-12,-3,7,9
6952899786,-33,-5,1,12,12,4,8,-4
6952907375,-22,-22,5,0,2,2,-10,-4
6952907375,10,11,-5,1,-4,-3,10,10
6952922935,-7,21,-2,-5,1,-1,-4,-7
6952922935,12,-46,0,-9,-12,-7,-2,2
6952923641,5,5,-3,2,7,9,-1,-3
6952923641,20,-15,-1,5,-2,-1,0,3
6952938645,-22,-25,-2,0,-3,-10,-4,-1
6952938645,5,-15,9,-2,5,3,1,2
6952944767,-12,73,11,4,2,1,7,-10
6952944767,15,-25,-11,-5,-9,-1,-10,1
6952967983,-32,12,4,9,0,0,-20,-6
6952967983,12,-48,-14,-5,11,0,0,-2
6952968669,-1,7,-1,-6,-19,-4,10,1
6952968669,13,22,13,-1,3,6,7,10
6952983020,16,-19,-6,17,23,14,8,2
6952983020,-11,52,9,6,-2,-4,-7,-5
6952983694,-12,5,1,-2,-6,-10,-15,-2
6952983694,2,-10,-5,-13,-2,4,-7,-6
6952998726,15,-2,-5,-9,-6,-11,6,2
6952998726,-11,-13,-3,3,-1,2,7,-1
6953004787,42,4,3,-9,11,3,1,6
6953004787,-17,24,8,31,12,4,5,1
6953019852,-18,-14,8,-2,-10,-8,-11,-6
6953019852,12,-1,-12,5,-12,-15,-10,-4
6953027306,-22,-7,16,-14,-2,-1,1,0
6953027306,-6,-14,-15,-40,-5,0,-3,-7
6953042834,18,20,4,10,1,5,9,4
6953042834,-6,-18,-11,-12,-12,-4,-5,1
6953043760,6,2,9,13,-6,-6,-1,2
6953043760,-27,-38,-21,-14,8,2,-3,-10
6953058676,6,2,-13,1,-9,-2,-3,-4
6953058676,-11,5,2,-21,6,4,7,3
6953064833,-10,-14,-5,-2,2,-1,6,-8
6953064833,-2,-7,-9,7,0,0,-19,5
6953079778,3,2,12,-13,-13,-1,-1,-2
6953079778,15,9,2,19,3,-1,-16,2
6953087287,6,28,-2,2,-1,-3,-2,-3
6953087287,-23,-21,-4,-2,-1,-8,-5,-1
6953102844,7,15,-22,5,-2,-4,-1,0
6953102844,15,15,23,8,4,7,-4,4
6953103757,-2,0,-7,-10,-1,0,-18,2
6953103757,17,0,-2,13,-5,4,7,-2
6953118701,-12,11,9,-4,1,-5,-7,-5
6953118701,-12,-13,-6,2,6,2,9,-4
6953124774,10,0,-14,-10,-2,2,10,-1
6953124774,2,-4,5,6,-4,-7,1,0
6953139784,-11,-25,-1,-6,2,4,4,-4
6953139784,-6,-13,-10,-14,-5,-2,-32,-2
6953147280,-2,-3,7,10,3,2,-3,0
6953147280,9,15,3,-2,-1,-7,-1,3
6953162962,0,-1,5,-10,-5,1,0,-2
6953162962,-4,-7,-8,-7,-13,-17,-14,-6
6953163674,-5,2,3,9,10,15,4,0
6953163674,-3,0,0,3,-2,-1,2,-6
6953178698,7,-6,6,-4,-2,-3,-9,0
6953178698,-17,-24,-19,0,-6,-8,6,-2
6953184790,-5,-3,-3,-2,-2,-1,8,2
6953184790,1,3,-6,-1,1,-4,8,-3
6953199816,2,-14,8,6,1,3,-10,1
6953199816,-5,-3,9,-4,-1,3,5,-4
6953207309,2,3,-2,-3,-5,-7,-11,0
6953207309,-1,4,5,7,3,9,3,-3
6953223005,-5,3,-3,0,-1,-3,5,0
6953223005,-11,-6,-8,-5,-3,0,10,-7
6953223666,9,26,3,2,-1,-2,8,14
6953223666,11,-19,-8,8,0,-2,-2,1
6953238676,7,10,2,-7,-1,-3,-2,4
6953238676,-8,-17,12,-3,-1,1,8,-7
6953244707,5,27,12,2,-9,-9,3,-2
6953244707,-6,49,2,-12,-7,-11,-5,-3
6953259667,22,-58,2,30,2,17,-4,0
6953259667,-21,26,-37,-31,-4,-8,-8,-2
6953275470,-31,-100,-65,-42,-3,-6,-13,-23
6953275470,7,114,34,4,5,10,6,18
6953282843,-20,-62,17,73,-11,-19,-16,-17
6953282843,75,20,30,-93,30,11,-3,-8
6953283689,22,104,5,-23,-21,8,18,27
6953283689,-100,-57,-11,70,-15,-12,0,-50
6953298692,2,39,15,13,57,20,21,16
6953298692,9,33,-18,12,-15,2,5,8
6953304784,15,-20,20,17,10,-3,-25,3
6953304784,28,-23,-2,-1,-11,4,7,8
6953319824,11,80,40,-29,-40,-28,20,-6
6953319824,-31,-14,-82,-64,-21,7,-77,6
6953327314,24,-6,46,70,16,-3,-4,4
6953327314,-4,-3,-35,-31,-8,4,7,13
6953342988,-36,-32,24,49,37,19,25,1
6953342988,6,9,-48,-73,39,-1,-69,-2
6953343667,7,32,1,-11,-18,-8,16,-3
6953343667,7,-46,15,52,6,-12,-12,-19
6953358664,33,72,-12,15,4,5,64,28
6953358664,-25,3,72,12,-25,-24,61,0
6953364833,-15,-13,-20,-11,-13,-3,14,-55
6953364833,22,-18,38,-15,-5,17,-10,38
6953379814,3,-1,-24,-105,-23,-27,-28,-15
6953379814,-10,-22,43,62,5,2,36,-4
6953387364,-2,-33,-14,-4,7,10,37,3
6953387364,7,-7,-2,5,12,-20,-43,3
6953402970,-9,-22,-70,-72,-33,42,-39,-13
6953402970,13,-24,44,76,-5,14,31,12
6953403622,-20,24,11,-5,12,-25,-39,-4
6953403622,13,-24,-37,-28,-10,-3,-20,-7
6953418643,-20,-10,21,-6,-1,1,-9,4
6953418643,2,7,-14,31,-1,-13,19,-10
6953424808,-19,-4,-10,-2,14,8,-10,4
6953424808,2,28,16,-22,-3,2,20,-4
6953439768,7,11,20,15,-5,-11,4,0
6953439768,3,12,-1,20,-1,10,11,-4
6953447261,6,5,0,-10,-8,4,2,11
6953447261,-5,10,12,-13,5,5,4,-1
6953462989,3,23,-14,5,4,-4,-3,-1
6953462989,-2,24,-17,5,4,5,-6,4
6953463621,-6,2,1,-6,-2,2,-7,5
6953463621,4,-6,-3,2,9,-7,17,-6
6953478624,-8,-33,-25,-20,-6,-10,-20,-7
6953478624,2,-26,11,15,-6,-5,-5,6
6953484694,-2,-19,5,3,0,2,18,-1
6953484694,4,-7,-6,-7,5,-5,5,-3
6953499762,-2,-9,0,2,1,-5,-24,1
6953499762,-12,-13,-5,-1,-5,17,-28,-8
6953507289,-11,-17,-9,-6,-10,0,0,3
6953507289,16,4,-7,-16,-6,-7,-17,4
6953522280,9,9,4,5,6,14,23,1
6953522280,-26,-8,-1,11,-1,-10,8,1
6953529781,-6,-19,-12,-15,-11,-12,-16,-3
6953529781,-12,1,-7,-8,4,8,24,-9
6953538655,6,3,1,5,1,-6,5,7
6953538655,16,10,2,1,-4,-1,12,-2
6953544706,-2,16,6,4,4,6,4,1
6953544706,3,-4,8,-3,-3,-2,-2,0
6953559818,-18,-7,-9,0,-1,-7,2,-9
6953559818,-7,-13,-3,-9,1,-3,7,2
6953567307,3,5,-3,13,3,1,-19,0
6953567307,3,8,7,-1,4,-1,1,-3
6953582307,-3,-6,-17,-12,-1,6,1,7
6953582307,-1,-5,3,2,-1,-5,4,-5
6953589840,6,1,6,-8,-2,-1,12,2
6953589840,-7,-5,-2,23,-5,-15,7,-11
6953598620,-2,2,2,-5,-1,13,10,7
6953598620,0,-5,-6,-1,0,-4,1,-1
6953604677,1,-2,2,3,-1,3,2,-1
6953604677,-9,2,-8,-16,-4,-2,1,-1
6953619783,-8,-7,7,-1,4,-9,-9,-7
6953619783,22,3,-19,-4,3,-5,20,9
6953627258,-2,5,0,-2,-1,16,-8,-1
6953627258,-11,-6,-2,-6,-4,4,-12,4
6953642311,1,0,-1,2,2,-13,-9,-8
6953642311,9,11,9,1,-1,2,-6,-4
6953649764,-7,-4,0,1,-1,-9,2,4
6953649764,4,4,-1,-7,-1,5,4,5
6953666833,-26,13,-2,-1,-5,-2,-2,-7
6953666833,14,38,0,7,1,-3,-1,-6
6953668923,-14,-10,-5,-2,-5,-8,-3,-7
6953668923,5,22,6,17,4,3,13,0
6953681666,11,9,-28,-31,7,1,3,0
6953681666,-3,-19,-5,1,-1,2,-8,-3
6953687343,-17,-1,-10,-3,6,4,1,0
6953687343,30,36,9,8,-5,-1,-8,9
6953702114,-18,-11,13,-5,-4,-8,-8,-4
6953702114,1,-43,-4,-6,-5,-5,-9,-2
6953709715,-9,-23,3,4,-12,-8,-7,-7
6953709715,-5,30,-31,-38,0,2,-1,-4
6953718785,-2,15,32,4,-2,6,5,7
6953718785,15,1,-10,3,4,-4,-11,0
6953724734,-14,-57,-5,11,-5,-5,-4,-3
6953724734,1,-51,-7,5,3,1,-4,0
6953739628,2,30,8,11,-16,-7,-7,-4
6953739628,-13,11,-20,-19,-2,-4,-2,-9
6953747109,18,22,-1,-4,-5,-4,8,3
6953747109,-9,14,12,6,3,8,7,-5
6953762247,-10,-32,-21,-10,8,-2,-5,-1
6953762247,-3,6,19,22,-3,-2,9,0
6953769717,3,32,-11,-11,6,5,-17,0
6953769717,-6,-26,3,-18,-9,-3,-7,3
6953785306,16,1,-2,10,0,-5,5,-8
6953785306,-24,-14,1,16,3,5,-8,9
6953786161,-2,-11,-5,-20,-4,-9,-8,-7
6953786161,-15,-15,10,15,-3,-7,-7,0
6953802714,18,-13,3,19,-5,7,3,1
6953802714,-2,7,-5,-9,12,-7,1,2
6953807331,21,9,6,9,-6,-3,-12,2
6953807331,-22,-21,3,3,7,11,12,1
6953822236,1,-1,1,0,-4,-13,-12,-5
6953822236,7,-5,-10,-5,-12,-10,-7,-6
6953829733,-26,-19,18,20,3,16,10,-4
6953829733,29,21,-9,-23,-4,-8,1,4
6953845329,-27,-12,2,36,18,-4,-4,-4
6953845329,3,-12,11,8,-28,-4,-1,2
6953846108,6,17,-16,-53,-8,-2,2,-4
6953846108,12,21,8,33,34,-8,3,2
6953859620,-4,-8,-8,1,9,20,17,1
6953859620,3,-13,-3,-5,15,16,-10,6
6953867209,16,35,-2,19,2,0,-1,4
6953867209,-9,-29,-3,-23,-29,-18,-8,-10
6953882285,4,-4,-7,-3,-6,-23,-6,1
6953882285,-8,2,-20,-15,-29,30,-20,-10
6953889809,-1,0,-3,-26,-14,-10,-22,1
6953889809,1,-1,7,20,17,5,8,1
6953905319,-10,-24,-28,-23,-14,-6,1,-4
6953905319,-3,9,-8,-18,-10,-22,10,-1
6953906140,0,-1,5,9,11,-5,-2,-3
6953906140,-8,-7,3,9,4,32,0,-3
6953919732,11,10,5,-6,-20,-25,-13,-4
6953919732,-1,14,6,6,15,0,7,9
6953927230,-5,-2,-1,11,6,0,-2,1
6953927230,1,4,-1,9,2,-12,18,-3
6953942149,-6,-2,0,-10,-3,7,-15,-4
6953942149,-5,10,17,4,6,-1,20,-7
6953949695,10,-2,-1,9,-2,-6,-2,7
6953949695,11,-2,-17,-18,-15,-13,-3,-2
6953965396,-1,1,2,0,9,2,-4,-2
6953965396,-33,-17,13,8,6,14,9,-4
6953966273,-6,-17,-8,-6,-11,-5,1,-6
6953966273,0,-25,-7,-9,-7,1,-12,-7
6953979744,7,8,0,1,2,-1,-8,7
6953979744,14,-7,-3,0,-2,-8,-9,-1
6953987287,-2,-7,1,-3,4,-1,14,-2
6953987287,-12,6,-3,-1,-1,-1,-17,1
6954002153,13,5,5,0,-1,-1,1,2
6954002153,-21,-8,-4,-7,-3,2,-8,-7
6954009629,9,-1,3,4,8,-1,7,1
6954009629,-12,-1,-1,-3,-4,16,0,-6
6954025389,-3,-14,-3,-5,-4,-1,0,3
6954025389,33,7,5,6,-1,-13,-3,4
6954026068,-8,9,-2,-7,1,-4,-15,4
6954026068,-15,-1,4,22,5,8,6,-4
6954039724,0,-5,-12,-18,-3,4,2,1
6954039724,-6,26,5,-5,6,4,-2,-1
6954047247,22,41,25,50,1,-7,3,4
6954047247,-3,-64,-17,-20,-13,-14,-9,-2
6954063540,-3,24,6,3,12,13,9,-2
6954063540,7,95,39,5,0,-10,4,3
6954069844,-10,-64,-34,19,-18,-4,-8,-23
6954069844,-6,21,-36,-22,32,13,-11,-4
6954085416,-17,36,22,25,-14,-11,-6,3
6954085416,-27,22,-16,48,1,-10,16,-9
6954086163,5,127,19,-68,9,9,6,2
6954086163,53,-74,45,69,9,6,12,22
6954099757,-45,-51,5,12,-7,-24,-32,-32
6954099757,0,-12,-45,-100,14,12,22,6
6954107219,6,-65,-18,24,-5,2,-3,0
6954107219,20,83,15,-11,-9,-2,2,5
6954122243,15,-63,-25,-44,-16,-12,9,2
6954122243,-18,-37,27,28,-29,-25,16,-12
6954129760,-8,12,6,-7,20,46,-18,13
6954129760,11,24,18,-9,11,4,15,-4
6954145344,17,21,18,41,4,11,-38,16
6954145344,-13,-36,-13,-22,0,-6,-59,-13
6954146140,5,-9,2,-11,-10,-16,0,-4
6954146140,-12,10,-12,11,-24,-9,24,-8
6954159612,-33,-13,-14,-44,3,7,26,-6
6954159612,10,-4,-19,1,-1,14,-44,1
6954167178,3,22,-1,16,-1,-6,3,3
6954167178,-5,-7,9,4,-30,-12,-22,-4
6954182187,4,15,-18,-17,0,-3,18,-10
6954182187,21,-1,4,-11,24,2,18,7
6954189718,1,-33,1,15,6,13,13,-3
6954189718,-30,-22,-5,15,11,4,6,-6
6954205437,8,-4,-5,-10,3,-1,17,6
6954205437,2,-14,0,17,-15,4,-2,1
6954206163,3,-24,6,19,-1,-6,17,1
6954206163,-11,0,-23,-32,2,2,-43,-6
6954219783,-2,-5,-6,4,-3,-3,-9,-2
6954219783,-2,-24,9,21,11,11,-2,5
6954227250,0,-2,4,-15,-12,-37,7,-9
6954227250,-13,-3,-11,-33,-12,5,0,0
6954242145,7,16,-4,6,-8,-3,-6,-4
6954242145,-15,-19,3,4,-6,-9,-2,-8
6954250381,-2,5,0,-8,4,-1,-2,0
6954250381,2,28,-1,3,-1,-11,-3,1
6954265323,11,21,7,11,7,10,3,2
6954265323,6,10,-4,-4,-10,-7,8,1
6954266142,-1,-1,-6,-3,3,6,1,2
6954266142,-3,-9,-1,-6,-3,-10,-8,-1
6954279700,1,6,8,6,2,1,3,6
6954279700,-5,-6,-3,-10,1,5,8,-5
6954287264,-4,-15,-5,-7,-2,1,-6,-4
6954287264,-6,-9,-18,-10,-2,-1,16,3
6954302216,2,8,6,-1,-8,-12,-14,-10
6954302216,4,-8,-6,3,0,2,31,9
6954310302,-11,-15,1,6,9,-3,5,0
6954310302,0,2,-4,-9,-6,-3,-4,-1
6954325268,6,12,1,-1,-2,-3,6,-1
6954325268,10,-1,7,6,-1,3,-1,3
6954326041,-3,4,-13,-17,-8,-8,-2,-3
6954326041,-2,-5,3,-1,2,-3,-2,-3
6954339724,8,-7,-1,3,5,6,4,7
6954339724,-1,1,0,2,-1,-1,-7,-4
6954347243,-6,-9,-9,-9,-6,-3,-2,-1
6954347243,7,-1,9,4,1,-8,-6,-1
6954362228,12,-1,-5,-3,3,18,1,2
6954362228,2,1,-3,4,-2,-3,-2,2
6954370321,-10,3,0,-5,-3,1,-11,-3
6954370321,-13,-3,0,1,-2,-4,0,-5
6954385409,-1,-7,1,9,2,-1,2,-2
6954385409,6,7,2,4,2,0,-3,0
6954386208,14,2,-7,-12,-6,-11,-15,-4
6954386208,0,3,-4,2,4,6,18,4
6954399722,-5,-10,3,-1,1,5,-32,5
6954399722,-3,-5,2,0,-3,-3,-9,-3
6954407233,-5,-5,3,3,-2,3,0,-2
6954407233,-7,2,1,-3,-4,-7,-10,-4
6954422245,-4,-7,-6,-3,-2,-6,14,-1
6954422245,22,1,-3,-5,-1,2,1,6
6954430348,-4,8,1,4,0,3,4,1
6954430348,20,-10,-8,-9,-2,3,-2,3
6954445267,-21,1,0,3,1,-1,4,-7
6954445267,-14,-2,-4,-4,-3,-6,-5,-4
6954446110,-5,0,-2,-8,0,3,11,2
6954446110,-5,7,10,16,-2,-4,-6,-3
6954459717,9,-2,-3,2,-1,0,4,1
6954459717,-4,-1,-11,-12,3,-5,-3,-6
6954467228,7,3,-6,-5,-4,3,1,5
6954467228,16,6,-2,-6,1,-2,1,0
6954482244,-19,7,0,-5,-1,3,0,-1
6954482244,-18,-3,4,4,-7,-5,-3,-4
6954490400,-2,0,-1,-5,2,-2,-5,-1
6954490400,9,20,-7,-4,-4,-4,-4,0
6954504723,16,-22,1,21,8,7,8,-1
6954504723,-6,1,-11,-30,3,-2,-5,-4
6954512894,-5,48,6,11,-4,-4,-5,-6
6954512894,-29,-40,-10,-12,-7,1,10,-2
6954519666,5,-67,-16,-18,-13,-10,-13,-7
6954519666,-10,4,20,41,1,-2,4,-4
6954527242,29,-7,9,16,-5,3,5,8
6954527242,-8,50,6,8,18,6,-1,-3
6954542216,-3,35,10,9,14,4,10,6
6954542216,3,-40,-18,-16,-17,-15,-6,-4
6954550449,-8,11,7,5,4,9,4,4
6954550449,11,-5,1,4,1,-1,-9,-2
6954565202,-24,30,-5,-16,-1,4,5,-3
6954565202,19,31,9,-11,6,-1,-5,0
6954572935,3,-7,-6,16,3,-4,2,0
6954572935,-4,-1,1,-1,-6,-9,-12,7
6954579735,2,0,-2,3,-1,-6,-12,-3
6954579735,-4,8,6,-3,-8,4,-13,2
6954587226,-2,-35,-9,-11,-1,0,-16,-4
6954587226,2,-21,3,-12,1,3,14,5
6954603572,2,-30,-12,7,-11,-15,-4,-4
6954603572,-4,-14,-10,-9,-14,0,1,3
6954610465,-6,-6,4,6,17,2,-2,-6
6954610465,12,-12,-1,-12,-6,-5,-7,-3
6954633655,1,22,-3,12,8,13,7,3
6954633655,1,0,-4,11,16,5,12,-2
6954634316,-1,12,-15,-15,-32,-16,2,-3
6954634316,-3,-11,-7,0,-2,-2,2,0
6954639756,-4,8,15,0,6,1,0,-5
6954639756,4,5,3,20,23,13,9,2
6954647264,-1,-10,-9,6,1,-5,0,0
6954647264,-6,8,-7,-14,-29,-17,-21,-9
6954662301,11,25,8,-3,-14,-11,14,1
6954662301,-3,-5,1,-10,-4,-1,10,-2
6954670417,-2,2,16,23,13,7,-1,1
6954670417,1,19,-4,-13,0,-2,-2,-3
6954684726,-3,-9,-11,-16,2,5,-1,2
6954684726,-2,-9,-11,-21,-13,-11,-6,-6
6954692903,-8,2,-13,-1,-4,0,11,3
6954692903,1,6,15,24,9,9,8,2
6954707936,1,-5,-13,-10,-8,-13,-12,-6
6954707936,4,12,2,7,0,-12,1,3
6954708543,-17,-24,5,-19,-13,4,-17,-13
6954708543,-9,-24,-7,-1,9,14,18,1
6954722248,4,14,-4,-2,3,-6,7,2
6954722248,-2,4,4,3,-4,1,-10,-2
6954730392,4,7,-1,-11,-4,0,-7,1
6954730392,-6,-1,9,5,2,-1,-3,-4
6954744751,-7,-35,-15,-19,-8,1,3,-3
6954744751,2,-2,0,-3,-3,3,-15,2
6954760431,0,7,1,-1,6,1,15,4
6954760431,-3,-6,-10,-8,-5,-9,-19,-3
6954767905,-23,2,7,4,-4,-9,-17,-2
6954767905,1,5,0,2,1,2,-7,-1
6954768553,-3,-15,-8,-12,-5,-18,3,-7
6954768553,6,9,-4,1,-2,16,-6,2
6954782261,3,10,10,0,-1,-6,-33,-5
6954782261,13,-6,2,2,0,-2,9,8
6954790327,-2,-9,2,-1,1,6,10,6
6954790327,-13,-13,-3,1,-1,-6,6,-5
6954804713,6,-13,5,4,5,7,-2,1
6954804713,-2,-11,0,-4,-3,-3,4,-2
6954812865,4,0,5,1,2,-2,-15,0
6954812865,1,-3,-2,1,-2,-5,5,-3
6954827895,-4,0,3,0,1,6,8,2
6954827895,4,5,-8,-2,-1,-3,-1,-2
6954828535,-4,6,0,-1,0,-2,-3,-1
6954828535,-1,2,0,-1,1,-1,-2,0
6954842273,9,2,2,3,0,3,11,-1
6954842273,-13,-3,4,7,-2,-5,0,-4
6954849736,6,-4,-4,-8,3,2,-3,4
6954849736,-12,-5,3,-1,-5,-2,-2,-1
6954864743,14,-2,-16,-13,-2,0,1,2
6954864743,-1,4,13,29,-10,0,-9,0
6954872880,-38,-14,1,2,18,8,5,-10
6954872880,6,34,10,14,-4,-4,-9,6
6954887790,-8,21,-13,-25,1,1,23,0
6954887790,-13,-47,0,0,0,-1,0,-10
6954888676,33,28,-2,13,-16,5,7,4
6954888676,-22,-38,13,-19,6,6,2,0
6954902258,-7,-42,-26,-11,-3,-3,-9,-4
6954902258,1,59,20,31,10,13,11,2
6954910405,10,-55,-12,-2,21,5,0,0
6954910405,20,104,23,10,-12,-8,0,9
6954924757,-18,-43,16,-11,-9,-4,-9,-1
6954924757,-29,-54,-29,-51,-17,-11,3,-10
6954932640,1,16,2,34,-30,-22,-16,-5
6954932640,-9,-34,-25,-52,15,8,2,-11
6954947889,23,56,-8,-42,22,16,19,13
6954947889,-15,-56,35,64,13,0,-5,-5
6954948574,8,17,18,41,9,12,9,4
6954948574,12,10,8,-11,-15,-12,4,0
6954962233,-13,21,48,100,-62,-24,-18,-10
6954962233,4,-39,-72,-66,43,13,-13,1
6954970404,-6,-15,-19,-15,-11,-4,-1,1
6954970404,-19,-13,-17,-2,7,14,19,0
6954984751,19,45,2,18,3,3,2,4
6954984751,4,101,19,4,-11,-3,5,0
6954992881,2,19,8,-21,-11,-12,-4,-7
6954992881,10,-25,-15,4,-10,-16,-5,-4
6955007879,-11,-44,-9,-6,17,6,-1,-4
6955007879,8,-13,15,9,1,1,-10,5
6955008593,0,-33,-8,-16,25,11,35,-7
6955008593,1,-39,-6,10,5,19,-28,2
6955022248,8,0,2,1,6,-10,22,5
6955022248,3,0,-7,-19,-27,-8,-11,-4
6955030385,-5,-4,-1,-8,-11,2,1,-2
6955030385,-3,7,-6,6,2,-20,-10,-4
6955053536,1,-8,4,1,6,9,10,2
6955053536,3,11,-3,7,19,19,29,11
6955054400,-18,-5,5,-19,-11,-3,-18,-9
6955054400,1,3,6,15,0,9,2,3
6955067872,8,-10,-5,-15,-2,1,15,5
6955067872,1,10,0,-6,-3,-6,7,-3
6955068556,-3,18,2,-2,4,4,2,4
6955068556,-6,-4,5,7,5,-10,-5,-4
6955082131,5,4,-7,0,3,10,10,-1
6955082131,8,14,0,-3,-6,-9,-1,2
6955090428,1,12,4,5,3,-7,4,2
6955090428,3,0,-1,7,3,2,2,2
6955104692,3,7,1,2,4,1,-12,-3
6955104692,-13,6,6,1,-7,-5,-5,-7
6955112879,-1,4,-9,-16,-7,-17,-26,-6
6955112879,6,-6,-9,-7,-6,-4,11,5
6955127917,1,2,-4,10,8,-4,-17,-3
6955127917,3,3,-6,-5,-8,-6,3,-1
6955128598,2,4,-9,-8,0,0,3,2
6955128598,-9,-1,-3,1,-1,-1,-2,-7
6955142217,-6,-6,7,-5,-2,8,-9,-7
6955142217,14,19,10,4,-8,-1,20,5
6955150313,-5,-6,-4,-6,0,-4,-5,0
6955150313,7,2,4,2,-3,-3,1,-2
6955164685,-8,-4,-3,-3,5,2,4,-2
6955164685,-11,-11,-4,-10,-7,-6,-21,-4
6955173595,1,-4,10,22,11,6,14,2
6955173595,1,-7,-12,-2,-2,1,6,-2
6955187186,6,8,0,-3,-5,-8,-13,-2
6955187186,-2,0,-4,-4,-1,1,-5,-4
6955196043,-5,-5,5,0,1,3,6,2
6955196043,3,3,2,-1,-3,-6,-7,-2
6955202258,-3,-7,0,-3,-2,-1,0,-4
6955202258,4,-16,-6,1,1,2,12,2
6955217159,-6,-13,-2,-7,-3,2,0,-2
6955217159,-4,-2,3,2,-1,0,0,-2
6955224694,11,-5,-3,-6,-1,0,14,6
6955224694,-4,3,-4,-2,-2,-10,3,-2
6955233591,-4,3,-1,-1,-1,11,-9,-2
6955233591,-9,-2,-3,-1,1,-3,-1,-2
6955247158,-2,-11,0,-1,-3,-6,-7,-3
6955247158,10,4,-3,-5,-6,-15,-18,3
6955256111,-2,2,-3,-11,-10,9,4,-1
6955256111,-4,-2,-6,4,12,11,-1,-4
6955262132,4,9,-1,0,7,5,-3,2
6955262132,-5,0,12,25,2,-8,-7,-2
6955271084,-5,-8,-1,-21,-5,-7,-14,-3
6955271084,0,4,-12,-11,-8,-7,1,-3
6955284686,11,33,1,1,-8,-7,-9,2
6955284686,-10,-32,-14,-13,0,0,-6,-3
6955293588,-4,0,10,12,9,1,2,-1
6955293588,24,7,17,2,-10,-1,-4,3
6955307197,-29,-29,-17,-5,2,-6,-4,-8
6955307197,-17,43,13,7,-6,3,-3,-7
6955316077,15,-10,0,6,6,2,0,2
6955316077,-24,-21,-28,-45,-11,-5,-5,-3
6955322212,-3,-13,-13,0,7,3,-4,-5
6955322212,21,5,-3,-8,-4,2,2,1
6955331083,-8,-8,8,26,-1,-3,-3,1
6955331083,1,33,21,42,1,-1,11,5
6955344685,2,12,6,-10,-10,-7,-11,4
6955344685,-24,11,-21,-34,-6,1,-5,-17
6955353590,18,33,-7,1,4,-2,2,4
6955353590,4,9,7,14,2,1,-1,3
6955367260,-31,-28,2,0,1,-4,-6,-8
6955367260,28,-7,-10,-7,-14,-4,4,7
6955376058,-8,45,4,6,1,-4,-4,-3
6955376058,-10,-22,-7,-22,1,4,-4,-6
6955382195,17,13,10,26,6,1,-6,2
6955382195,5,-2,8,1,2,5,5,5
6955391089,-7,-26,-9,-21,-8,-5,13,-2
6955391089,-1,-18,1,6,4,-1,-18,-3
6955404650,-15,-20,-1,-17,-8,2,0,-3
6955404650,2,-11,5,19,8,5,-1,3
6955413588,4,-13,-6,-20,4,-3,-4,-2
6955413588,4,-9,-3,6,-9,-2,7,0
6955427210,6,12,-6,-21,-19,-15,-4,-1
6955427210,-12,-20,-17,-10,4,4,-1,0
6955436065,15,7,-1,26,-20,-8,2,1
6955436065,3,-2,-3,14,32,3,11,3
6955442234,-4,7,9,1,9,9,-2,-3
6955442234,9,1,4,34,20,10,6,1
6955451041,-8,-22,-17,-38,-19,-11,-10,-2
6955451041,2,12,11,23,-3,-8,1,-1
6955474975,-16,-27,-6,-15,-16,2,0,-7
6955474975,3,9,13,19,-2,0,3,0
6955477951,8,16,-3,6,15,1,-5,2
6955477951,-1,6,-2,-19,-20,-6,-2,1
6955497993,15,0,-8,-18,12,6,11,6
6955497993,-13,3,4,1,-8,-6,-10,-1
6955500349,-6,-10,-5,4,-3,-2,-10,-8
6955500349,-3,1,0,-7,4,1,3,-2
6955502175,8,12,0,33,13,3,7,4
6955502175,-13,-25,-3,-20,-11,-2,-4,-6
6955510994,4,-4,-2,6,5,1,5,5
6955510994,-3,-1,16,-6,0,3,7,-7
6955524666,1,-1,-4,6,0,-3,-4,3
6955524666,0,-4,10,-9,2,7,6,2
6955533683,-9,2,-1,-8,-5,-4,-10,-5
6955533683,-4,-9,-26,-22,-14,-11,-8,-7
6955547182,-6,-6,2,3,-4,0,-3,-2
6955547182,-3,-3,-11,-5,-2,-13,-9,3
6955556056,2,7,4,-3,-3,15,-2,-4
6955556056,8,5,3,8,3,12,-2,3
6955562012,-1,3,-5,-5,-7,-16,-5,-4
6955562012,2,2,-7,-5,2,2,-20,2
6955571121,-12,-17,5,0,0,-19,1,-3
6955571121,3,-5,-10,-5,-4,10,-11,1
6955584703,13,20,12,6,0,11,-3,-1
6955584703,0,-11,-1,-3,1,3,16,0
6955593647,-5,-10,-6,-3,-3,-6,2,-7
6955593647,-1,-14,1,1,-1,-8,-4,4
6955607218,-4,-20,0,-1,0,-4,22,-1
6955607218,4,-14,-4,-3,-9,-8,-5,-4
6955616070,2,-3,-7,-4,-2,4,6,7
6955616070,-6,-1,-4,-1,-1,-7,-3,-8
6955622158,-6,-1,-4,-3,-4,1,-12,-2
6955622158,-2,11,3,-2,-1,-8,-7,-4
6955631104,-6,2,2,1,-1,-2,17,-3
6955631104,1,-5,1,0,-3,1,1,-3
6955644623,7,-5,-6,-3,-3,-7,-8,4
6955644623,4,10,-3,-2,-1,4,-17,-5
6955653618,10,6,4,3,0,-21,-10,1
6955653618,7,3,4,-2,1,28,3,3
6955667073,-50,-4,5,7,-5,-4,3,-14
6955667073,2,3,-12,-13,-2,-5,4,2
6955676115,-10,-1,3,16,3,8,-4,-1
6955676115,9,5,11,6,-1,-12,-4,-1
6955691045,11,29,-4,6,-3,0,0,5
6955691045,2,-24,-10,-27,-5,1,1,-1
6955692700,4,36,-14,-2,2,-2,-9,-4
6955692700,-4,-22,-32,-26,-12,-11,1,4
6955704701,-2,-34,4,2,-2,-1,-8,-7
6955704701,2,86,62,47,13,8,15,9
6955713565,-8,-1,-47,-42,-5,5,-2,-8
6955713565,-50,-48,-14,-6,-2,-17,-11,-9
6955736042,-1,16,-10,-47,-15,-9,-12,-7
6955736042,49,61,31,36,1,2,20,14
6955737538,-18,-9,-19,-35,8,5,-26,-12
6955737538,14,-76,-17,-30,-11,-5,7,1
6955750936,11,18,-3,-11,-11,-6,-14,8
6955750936,-18,-116,-10,28,8,10,10,4
6955752545,-18,94,15,-6,-10,-8,-6,-15
6955752545,-4,37,9,8,-3,-11,-15,-4
6955764675,15,-20,5,17,2,3,13,-1
6955764675,6,9,-9,-12,-2,3,14,2
6955773659,11,-47,16,24,2,4,6,9
6955773659,-5,28,3,5,4,4,3,-2
6955787227,20,37,6,2,2,3,25,4
6955787227,-27,6,-6,-10,-16,-17,-46,-17
6955796067,-7,-11,4,-24,2,5,11,4
6955796067,8,33,4,29,16,6,8,-5
6955811006,-7,-1,-2,3,5,0,1,2
6955811006,-5,1,-24,-42,-10,-8,-3,-5
6955812655,7,-35,16,24,-7,-11,-6,-1
6955812655,20,3,11,3,-10,16,6,7
6955824686,-13,-52,-8,-1,24,2,-6,-6
6955824686,-8,-35,1,3,18,0,0,-5
6955833741,9,-22,4,8,-1,8,0,9
6955833741,3,-3,-4,-7,-10,-9,5,2
6955847189,-4,0,-7,-16,-15,0,-13,-5
6955847189,-8,-16,-6,3,1,5,1,-2
6955856116,7,-3,7,11,2,-2,-2,1
6955856116,-1,3,2,12,18,3,10,1
6955880068,-25,-34,-13,-16,-22,-14,-17,-10
6955880068,7,4,-9,-8,-8,-1,7,-2
6955881540,-15,-2,2,-2,-4,5,-5,-2
6955881540,-4,0,-11,-18,-8,-8,-10,-6
6955884668,12,7,7,12,9,3,1,6
6955884668,-1,3,-7,-5,-2,-3,-1,-1
6955901037,-6,-1,1,-4,-2,-4,0,-3
6955901037,-4,12,9,3,2,2,8,0
6955907133,3,1,4,17,2,-1,-4,-2
6955907133,-3,-6,-5,-14,-3,-3,-3,-2
6955916052,6,0,7,9,1,5,7,1
6955916052,3,1,1,-1,0,-5,-11,1
6955930991,17,11,2,10,8,9,11,5
6955930991,-19,-4,-5,0,-2,-6,-10,-9
6955932583,3,-11,-9,-6,-6,-7,36,4
6955932583,5,3,3,4,0,3,-1,-1
6955944682,3,13,-1,5,0,-4,3,4
6955944682,-3,-8,-9,-5,2,8,-6,-4
6955953593,-15,-10,0,6,0,-7,-22,-2
6955953593,-3,5,-2,-4,-3,-1,-3,-2
6955967076,5,5,-1,-13,-8,2,5,-1
6955967076,3,-4,-2,1,1,-4,0,-3
6955976094,5,2,2,8,0,4,-1,2
6955976094,-19,-16,-9,-8,-3,-1,-5,-6
6955990992,-6,-2,1,4,6,-4,-7,0
6955990992,8,9,-6,-7,0,3,7,6
6955992738,4,-11,-5,-7,-5,-2,-3,-4
6955992738,-3,11,12,17,2,-4,-3,-1
6956004697,5,-1,-15,-21,1,3,11,1
6956004697,-22,-5,3,0,-1,-1,2,-2
6956013591,7,12,8,-1,0,1,-4,2
6956013591,-1,-6,-6,0,0,-3,-10,-1
6956027207,7,-2,1,2,-4,-2,1,-4
6956027207,0,1,4,9,5,2,-2,2
6956036031,-7,-5,-7,-4,-3,0,-6,-6
6956036031,1,-7,0,-3,-1,-2,3,3
6956051078,-19,-8,0,2,-2,1,-3,-4
6956051078,8,6,-4,-8,-8,-5,2,0
6956052509,3,5,1,2,0,-1,-1,-1
6956052509,-2,6,1,0,4,6,-1,-3
6956064718,-9,-3,-2,3,-2,1,6,1
6956064718,1,7,-1,-4,-4,-4,0,-1
6956073592,4,-5,-2,-4,-1,1,0,3
6956073592,9,10,-2,-1,-5,-7,-4,-1
6956087083,-4,-3,0,0,2,0,-1,-2
6956087083,-7,-2,-1,2,-2,-2,-4,-2
6956096084,5,1,2,0,-2,-1,-1,-3
6956096084,3,0,-3,-11,-1,1,0,0
6956111051,-3,9,1,12,6,1,-2,0
6956111051,-1,-18,1,-12,-9,-3,-1,-2
6956112687,0,12,-5,8,2,-4,-3,-2
6956112687,1,16,4,6,-1,2,4,2
6956124683,-2,-9,-11,-29,-6,-3,-7,-2
6956124683,6,5,6,28,9,2,3,1
6956133575,-3,-10,-11,-22,-8,-3,-4,-5
6956133575,-6,2,-2,-7,-6,-4,-3,-3
6956147180,16,11,2,1,-4,-3,-4,-2
6956147180,-13,-9,5,1,-1,-1,-3,0
6956156089,2,5,7,4,3,3,1,-1
6956156089,-8,2,-7,-1,7,4,4,-1
6956171054,6,-3,-6,1,-4,-4,-4,1
6956171054,9,9,-6,-6,-12,-7,-4,-1
6956172641,0,0,4,14,11,5,4,1
6956172641,-5,1,-3,-10,-4,-2,-2,-4
6956184688,-5,-14,6,-1,-9,-6,-4,-2
6956184688,4,8,-6,-7,2,0,-1,1
6956193521,-7,4,-4,-10,-1,-2,-2,-1
6956193521,-8,-11,3,9,-3,0,3,-3
6956207075,-5,8,5,7,-4,-2,-3,-2
6956207075,3,7,-9,-19,-5,-6,-4,-1
6956216129,8,-6,-3,-4,6,4,4,2
6956216129,4,-8,6,13,10,9,3,2
6956231064,-5,1,4,-1,-5,-6,-6,-3
6956231064,-7,-11,-6,2,4,4,-1,-4
6956232682,-5,-13,-4,0,-11,-4,-4,3
6956232682,-2,-13,-12,-18,-1,-5,-3,-1
6956244596,2,3,2,7,1,0,1,1
6956244596,3,-1,1,-3,-10,-1,-1,-3
6956253572,-9,-15,-5,-6,-2,-7,-6,-2
6956253572,6,2,-1,-2,-5,-4,1,2
6956267148,0,-2,1,8,9,4,1,-2
6956267148,-2,4,4,3,-4,0,2,-1
6956276067,-3,2,1,21,7,7,2,-4
6956276067,-3,-8,-10,-16,-3,-2,-4,-1
6956290963,-3,-6,-3,-6,-3,-4,0,0
6956290963,6,2,1,1,2,-1,0,-1
6956292603,-3,3,-1,-6,-7,-4,-1,1
6956292603,0,1,4,2,-7,-5,-3,-1
6956304675,-12,-2,-3,-2,0,2,2,-1
6956304675,-5,0,-1,-2,0,2,2,2
6956313520,8,2,-1,-4,0,-1,-2,-1
6956313520,3,-2,1,8,6,3,1,2
6956327838,2,4,-2,0,1,-1,-1,-2
6956327838,-10,-2,1,-1,-2,-2,-2,-1
6956334680,-3,-1,-5,-2,-9,-7,-3,-4
6956334680,5,-5,-4,-1,-2,1,0,1
6956351061,-15,-3,-1,3,4,2,-1,-5
6956351061,8,2,-1,2,5,1,2,3
6956352537,-15,-7,-2,-6,-6,-1,-3,-1
6956352537,6,1,1,5,-3,-4,-4,-1
6956364656,-3,-2,-3,-4,-4,-5,-3,2
6956364656,6,8,2,-4,-3,-2,-4,-3
6956373549,6,1,0,-2,-4,-1,2,0
6956373549,2,2,3,0,-2,-2,-1,-2
6956387806,3,5,1,0,0,2,1,0
6956387806,-5,-6,-4,-4,0,-3,-2,-3
6956394656,3,-3,-2,9,4,0,0,0
6956394656,-2,4,4,7,3,2,1,0
6956410336,-11,-8,-8,-9,-3,-4,-2,-2
6956410336,3,-4,0,-7,-5,-1,1,0
6956417162,5,5,5,4,2,-3,-1,4
6956417162,-4,-2,1,-4,-2,0,-5,-6
